Date,Equity,Cash,PositionValue,OpenPositions,OpenWatches
2020-01-02,100000.0,100000.0,0.0,0,1
2020-01-03,100000.0,100000.0,0.0,0,0
2020-01-06,100000.0,100000.0,0.0,0,1
2020-01-07,100314.65395348547,0.0,100314.65395348547,1,0
2020-01-08,101993.57394165588,0.0,101993.57394165588,1,0
2020-01-09,101723.38290987138,0.0,101723.38290987138,1,0
2020-01-10,101448.40909137993,0.0,101448.40909137993,1,0
2020-01-13,98182.25133264136,0.0,98182.25133264136,1,0
2020-01-14,98992.79205718807,0.0,98992.79205718807,1,0
2020-01-15,100459.38383075608,0.0,100459.38383075608,1,0
2020-01-16,101771.63969013108,0.0,101771.63969013108,1,0
2020-01-17,102529.0761060975,0.0,102529.0761060975,1,0
2020-01-21,102760.67304345663,0.0,102760.67304345663,1,0
2020-01-22,101921.21709572227,0.0,101921.21709572227,1,0
2020-01-23,102615.9269807826,0.0,102615.9269807826,1,0
2020-01-24,99388.37140917113,0.0,99388.37140917113,1,0
2020-01-27,96464.75343544898,0.0,96464.75343544898,1,0
2020-01-28,99060.31756020451,0.0,99060.31756020451,1,0
2020-01-29,97714.29085661958,0.0,97714.29085661958,1,0
2020-01-30,95036.71529279782,0.0,95036.71529279782,1,0
2020-01-31,92812.65473245656,0.0,92812.65473245656,1,0
2020-02-03,92518.36363499817,0.0,92518.36363499817,1,0
2020-02-04,94974.01303999683,0.0,94974.01303999683,1,0
2020-02-05,99615.10463280627,0.0,99615.10463280627,1,0
2020-02-06,102210.68494296522,0.0,102210.68494296522,1,0
2020-02-07,100792.28520804328,0.0,100792.28520804328,1,0
2020-02-10,101467.71827764518,0.0,101467.71827764518,1,0
2020-02-11,103812.37627877634,0.0,103812.37627877634,1,0
2020-02-12,107372.8251349733,0.0,107372.8251349733,1,0
2020-02-13,107049.57835081873,0.0,107049.57835081873,1,0
2020-02-14,106301.78843528323,0.0,106301.78843528323,1,0
2020-02-18,107078.5259448132,0.0,107078.5259448132,1,0
2020-02-19,106832.48353491281,0.0,106832.48353491281,1,0
2020-02-20,106335.55118679146,0.0,106335.55118679146,1,0
2020-02-21,104782.09235313493,0.0,104782.09235313493,1,0
2020-02-24,96662.56334319476,0.0,96662.56334319476,1,0
2020-02-25,92513.55657018612,0.0,92513.55657018612,1,0
2020-02-26,91084.59294616812,91084.59294616812,0.0,0,1
2020-02-27,91084.59294616812,91084.59294616812,0.0,0,0
2020-02-28,91084.59294616812,91084.59294616812,0.0,0,0
2020-03-02,91084.59294616812,91084.59294616812,0.0,0,1
2020-03-03,91084.59294616812,91084.59294616812,0.0,0,1
2020-03-04,91765.98681927599,0.0,91765.98681927599,1,0
2020-03-05,99205.71263455771,0.0,99205.71263455771,1,0
2020-03-06,94967.13767588226,0.0,94967.13767588226,1,0
2020-03-09,92625.55701701474,0.0,92625.55701701474,1,0
2020-03-10,96626.99558777259,0.0,96626.99558777259,1,0
2020-03-11,90669.3189550328,0.0,90669.3189550328,1,0
2020-03-12,86312.21775059616,0.0,86312.21775059616,1,0
2020-03-13,91024.99449584933,0.0,91024.99449584933,1,0
2020-03-16,92180.95775081743,0.0,92180.95775081743,1,0
2020-03-17,97812.61299167201,0.0,97812.61299167201,1,0
2020-03-18,100509.85628421832,0.0,100509.85628421832,1,0
2020-03-19,101310.1246376633,0.0,101310.1246376633,1,0
2020-03-20,94166.85641529955,0.0,94166.85641529955,1,0
2020-03-23,92121.68172079911,0.0,92121.68172079911,1,0
2020-03-24,89365.136583959,0.0,89365.136583959,1,0
2020-03-25,82814.66738319167,0.0,82814.66738319167,1,0
2020-03-26,85956.51639550416,0.0,85956.51639550416,1,0
2020-03-27,86341.83963168315,0.0,86341.83963168315,1,0
2020-03-30,87883.1325763991,0.0,87883.1325763991,1,0
2020-03-31,89276.23867285368,0.0,89276.23867285368,1,0
2020-04-01,90402.5413253216,0.0,90402.5413253216,1,0
2020-04-02,93662.9682119462,0.0,93662.9682119462,1,0
2020-04-03,95708.14290644664,0.0,95708.14290644664,1,0
2020-04-06,96715.90640601564,0.0,96715.90640601564,1,0
2020-04-07,94433.61468430416,0.0,94433.61468430416,1,0
2020-04-08,91943.83427003755,0.0,91943.83427003755,1,0
2020-04-09,92062.39278364305,0.0,92062.39278364305,1,0
2020-04-13,92862.68049779462,0.0,92862.68049779462,1,0
2020-04-14,95115.34388485023,0.0,95115.34388485023,1,0
2020-04-15,94937.5093412264,0.0,94937.5093412264,1,0
2020-04-16,94700.36649973992,0.0,94700.36649973992,1,0
2020-04-17,94641.09046972159,0.0,94641.09046972159,1,0
2020-04-20,94641.09046972159,0.0,94641.09046972159,1,0
2020-04-21,95352.44155135466,0.0,95352.44155135466,1,0
2020-04-22,95767.4318436027,0.0,95767.4318436027,1,0
2020-04-23,97456.91809014889,0.0,97456.91809014889,1,0
2020-04-24,97694.00930308444,0.0,97694.00930308444,1,0
2020-04-27,98642.49031906624,0.0,98642.49031906624,1,0
2020-04-28,95915.6122382952,0.0,95915.6122382952,1,0
2020-04-29,93425.8447311663,0.0,93425.8447311663,1,0
2020-04-30,93692.60300017092,0.0,93692.60300017092,1,0
2020-05-01,94730.01419510237,0.0,94730.01419510237,1,0
2020-05-04,96419.4939880797,0.0,96419.4939880797,1,0
2020-05-05,97249.43585116259,0.0,97249.43585116259,1,0
2020-05-06,97160.50567221294,0.0,97160.50567221294,1,0
2020-05-07,96864.09970784587,0.0,96864.09970784587,1,0
2020-05-08,98820.35067696554,0.0,98820.35067696554,1,0
2020-05-11,99976.32683907136,0.0,99976.32683907136,1,0
2020-05-12,99442.80384749328,0.0,99442.80384749328,1,0
2020-05-13,101073.00761045227,0.0,101073.00761045227,1,0
2020-05-14,97618.52836164794,0.0,97618.52836164794,1,0
2020-05-15,96814.50403112396,0.0,96814.50403112396,1,0
2020-05-18,96069.97515195968,0.0,96069.97515195968,1,0
2020-05-19,94581.00129002637,0.0,94581.00129002637,1,0
2020-05-20,96189.08221891866,0.0,96189.08221891866,1,0
2020-05-21,95653.0616961901,0.0,95653.0616961901,1,0
2020-05-22,96397.5647610789,0.0,96397.5647610789,1,0
2020-05-26,93419.5783157991,0.0,93419.5783157991,1,0
2020-05-27,99107.50222358125,0.0,99107.50222358125,1,0
2020-05-28,95474.3881886139,95474.3881886139,0.0,0,1
2020-05-29,95474.3881886139,95474.3881886139,0.0,0,0
2020-06-01,95474.3881886139,95474.3881886139,0.0,0,1
2020-06-02,95474.3881886139,95474.3881886139,0.0,0,1
2020-06-03,95474.3881886139,95474.3881886139,0.0,0,1
2020-06-04,95474.3881886139,95474.3881886139,0.0,0,0
2020-06-05,95474.3881886139,95474.3881886139,0.0,0,0
2020-06-08,95474.3881886139,95474.3881886139,0.0,0,1
2020-06-09,95474.3881886139,95474.3881886139,0.0,0,1
2020-06-10,95474.3881886139,95474.3881886139,0.0,0,1
2020-06-11,95474.3881886139,95474.3881886139,0.0,0,0
2020-06-12,95474.3881886139,95474.3881886139,0.0,0,0
2020-06-15,95474.3881886139,95474.3881886139,0.0,0,1
2020-06-16,95474.3881886139,95474.3881886139,0.0,0,1
2020-06-17,95474.3881886139,95474.3881886139,0.0,0,1
2020-06-18,95474.3881886139,95474.3881886139,0.0,0,0
2020-06-19,95474.3881886139,95474.3881886139,0.0,0,0
2020-06-22,95474.3881886139,95474.3881886139,0.0,0,1
2020-06-23,95474.3881886139,95474.3881886139,0.0,0,1
2020-06-24,95474.3881886139,95474.3881886139,0.0,0,1
2020-06-25,95474.3881886139,95474.3881886139,0.0,0,0
2020-06-26,95474.3881886139,95474.3881886139,0.0,0,0
2020-06-29,95474.3881886139,95474.3881886139,0.0,0,1
2020-06-30,95474.3881886139,95474.3881886139,0.0,0,1
2020-07-01,95474.3881886139,95474.3881886139,0.0,0,1
2020-07-02,95474.3881886139,95474.3881886139,0.0,0,0
2020-07-06,95474.3881886139,95474.3881886139,0.0,0,1
2020-07-07,95474.3881886139,95474.3881886139,0.0,0,1
2020-07-08,95474.3881886139,95474.3881886139,0.0,0,1
2020-07-09,95474.3881886139,95474.3881886139,0.0,0,0
2020-07-10,95474.3881886139,95474.3881886139,0.0,0,0
2020-07-13,93256.88493704218,0.0,93256.88493704218,1,0
2020-07-14,96213.68294970317,0.0,96213.68294970317,1,0
2020-07-15,95768.839043422,0.0,95768.839043422,1,0
2020-07-16,95768.839043422,0.0,95768.839043422,1,0
2020-07-17,95716.53992588312,0.0,95716.53992588312,1,0
2020-07-20,94722.21413223851,0.0,94722.21413223851,1,0
2020-07-21,95088.51993370129,0.0,95088.51993370129,1,0
2020-07-22,95533.35721564837,0.0,95533.35721564837,1,0
2020-07-23,96344.50692339231,0.0,96344.50692339231,1,0
2020-07-24,95795.02503602889,0.0,95795.02503602889,1,0
2020-07-27,96737.00534179604,0.0,96737.00534179604,1,0
2020-07-28,97574.34104214686,0.0,97574.34104214686,1,0
2020-07-29,98463.97586003657,0.0,98463.97586003657,1,0
2020-07-30,97783.65675031584,0.0,97783.65675031584,1,0
2020-07-31,97992.96583415076,0.0,97992.96583415076,1,0
2020-08-03,98843.00038292742,0.0,98843.00038292742,1,0
2020-08-04,100158.79186066674,0.0,100158.79186066674,1,0
2020-08-05,98895.64396583833,0.0,98895.64396583833,1,0
2020-08-06,98606.1539423339,0.0,98606.1539423339,1,0
2020-08-07,99579.86480833049,0.0,99579.86480833049,1,0
2020-08-10,99316.70651278262,0.0,99316.70651278262,1,0
2020-08-11,98027.20039266134,0.0,98027.20039266134,1,0
2020-08-12,99579.86480833049,0.0,99579.86480833049,1,0
2020-08-13,99211.43921996304,0.0,99211.43921996304,1,0
2020-08-14,99421.94730826591,0.0,99421.94730826591,1,0
2020-08-17,100132.46013271017,0.0,100132.46013271017,1,0
2020-08-18,100474.59373912551,0.0,100474.59373912551,1,0
2020-08-19,99843.02972821242,0.0,99843.02972821242,1,0
2020-08-20,99921.9520444073,0.0,99921.9520444073,1,0
2020-08-21,99527.20797675142,0.0,99527.20797675142,1,0
2020-08-24,100685.154822101,0.0,100685.154822101,1,0
2020-08-25,101948.29609259532,0.0,101948.29609259532,1,0
2020-08-26,101921.97098897284,0.0,101921.97098897284,1,0
2020-08-27,102027.23165745835,0.0,102027.23165745835,1,0
2020-08-28,100421.97002921683,0.0,100421.97002921683,1,0
2020-08-31,100948.28662031256,0.0,100948.28662031256,1,0
2020-09-01,99553.54632904207,0.0,99553.54632904207,1,0
2020-09-02,100658.81646981035,0.0,100658.81646981035,1,0
2020-09-03,98448.24969093747,0.0,98448.24969093747,1,0
2020-09-04,97711.41176287073,0.0,97711.41176287073,1,0
2020-09-08,92500.80994281547,0.0,92500.80994281547,1,0
2020-09-09,94237.6838405013,0.0,94237.6838405013,1,0
2020-09-10,91316.62411018639,0.0,91316.62411018639,1,0
2020-09-11,90711.35208122541,0.0,90711.35208122541,1,0
2020-09-14,91027.12746234788,0.0,91027.12746234788,1,0
2020-09-15,90974.48387943697,0.0,90974.48387943697,1,0
2020-09-16,91553.46392644584,0.0,91553.46392644584,1,0
2020-09-17,91579.78240573425,0.0,91579.78240573425,1,0
2020-09-18,90921.87341819644,0.0,90921.87341819644,1,0
2020-09-21,92211.3596653155,0.0,92211.3596653155,1,0
2020-09-22,92500.80994281547,0.0,92500.80994281547,1,0
2020-09-23,89106.05733131351,0.0,89106.05733131351,1,0
2020-09-24,91132.40800383562,0.0,91132.40800383562,1,0
2020-09-25,92421.88100228652,0.0,92421.88100228652,1,0
2020-09-28,93316.63643041786,0.0,93316.63643041786,1,0
2020-09-29,93369.26014032653,0.0,93369.26014032653,1,0
2020-09-30,93974.51892061936,0.0,93974.51892061936,1,0
2020-10-01,94395.59471623179,0.0,94395.59471623179,1,0
2020-10-02,97053.50939966699,0.0,97053.50939966699,1,0
2020-10-05,98978.18159720539,0.0,98978.18159720539,1,0
2020-10-06,96091.8578594828,0.0,96091.8578594828,1,0
2020-10-07,96952.38089312131,0.0,96952.38089312131,1,0
2020-10-08,101739.0288642392,0.0,101739.0288642392,1,0
2020-10-09,102527.86191795676,0.0,102527.86191795676,1,0
2020-10-12,101272.91475512863,0.0,101272.91475512863,1,0
2020-10-13,98960.27050572143,0.0,98960.27050572143,1,0
2020-10-14,99623.58147476512,0.0,99623.58147476512,1,0
2020-10-15,100089.69558387568,0.0,100089.69558387568,1,0
2020-10-16,99265.04034719021,0.0,99265.04034719021,1,0
2020-10-19,98530.00138657133,0.0,98530.00138657133,1,0
2020-10-20,98834.7712280401,0.0,98834.7712280401,1,0
2020-10-21,98261.09173972472,0.0,98261.09173972472,1,0
2020-10-22,98440.36230351217,0.0,98440.36230351217,1,0
2020-10-23,98476.2148958035,0.0,98476.2148958035,1,0
2020-10-26,96683.44843928215,0.0,96683.44843928215,1,0
2020-10-27,95069.97535354081,0.0,95069.97535354081,1,0
2020-10-28,92255.34919807,0.0,92255.34919807,1,0
2020-10-29,96183.41272991631,0.0,96183.41272991631,1,0
2020-10-30,93138.26109606346,0.0,93138.26109606346,1,0
2020-11-02,95228.41553079768,0.0,95228.41553079768,1,0
2020-11-03,96039.25733232766,0.0,96039.25733232766,1,0
2020-11-04,94453.59357283774,0.0,94453.59357283774,1,0
2020-11-05,96976.22180266872,0.0,96976.22180266872,1,0
2020-11-06,98309.5946105514,0.0,98309.5946105514,1,0
2020-11-09,95732.93661536537,0.0,95732.93661536537,1,0
2020-11-10,98651.93517108374,0.0,98651.93517108374,1,0
2020-11-11,98778.09585154905,0.0,98778.09585154905,1,0
2020-11-12,97462.74056778224,0.0,97462.74056778224,1,0
2020-11-13,99228.55676143829,0.0,99228.55676143829,1,0
2020-11-16,101625.03951546566,0.0,101625.03951546566,1,0
2020-11-17,101589.02727422646,0.0,101589.02727422646,1,0
2020-11-18,101787.18963017761,0.0,101787.18963017761,1,0
2020-11-19,101985.4052024447,0.0,101985.4052024447,1,0
2020-11-20,101012.39808154106,0.0,101012.39808154106,1,0
2020-11-23,103589.04847439624,0.0,103589.04847439624,1,0
2020-11-24,104435.94052881966,0.0,104435.94052881966,1,0
2020-11-25,101570.97173845636,0.0,101570.97173845636,1,0
2020-11-27,102850.31478098399,0.0,102850.31478098399,1,0
2020-11-30,101462.874196092,0.0,101462.874196092,1,0
2020-12-01,99210.53163499157,0.0,99210.53163499157,1,0
2020-12-02,98868.17586979755,0.0,98868.17586979755,1,0
2020-12-03,99030.3411891712,0.0,99030.3411891712,1,0
2020-12-04,99210.53163499157,0.0,99210.53163499157,1,0
2020-12-07,99660.9925448808,0.0,99660.9925448808,1,0
2020-12-08,101066.45825621951,0.0,101066.45825621951,1,0
2020-12-09,103913.37911314356,0.0,103913.37911314356,1,0
2020-12-10,101462.874196092,0.0,101462.874196092,1,0
2020-12-11,101552.94661200963,0.0,101552.94661200963,1,0
2020-12-14,99841.19819536289,0.0,99841.19819536289,1,0
2020-12-15,101661.05175670484,0.0,101661.05175670484,1,0
2020-12-16,99246.57428555416,0.0,99246.57428555416,1,0
2020-12-17,99570.90492430147,0.0,99570.90492430147,1,0
2020-12-18,100255.61645468953,0.0,100255.61645468953,1,0
2020-12-21,100579.939491106,0.0,100579.939491106,1,0
2020-12-22,99751.10297245269,0.0,99751.10297245269,1,0
2020-12-23,99300.61925557091,0.0,99300.61925557091,1,0
2020-12-24,99967.30565951225,0.0,99967.30565951225,1,0
2020-12-28,100219.58900878865,0.0,100219.58900878865,1,0
2020-12-29,98579.84986995856,98579.84986995856,0.0,0,1
2020-12-30,98579.84986995856,98579.84986995856,0.0,0,1
2020-12-31,98579.84986995856,98579.84986995856,0.0,0,0
2021-01-04,98579.84986995856,98579.84986995856,0.0,0,1
2021-01-05,98579.84986995856,98579.84986995856,0.0,0,1
2021-01-06,106042.39378799377,0.0,106042.39378799377,1,0
2021-01-07,111912.98208208254,0.0,111912.98208208254,1,0
2021-01-08,109402.46345529196,0.0,109402.46345529196,1,0
2021-01-11,111268.28785362412,0.0,111268.28785362412,1,0
2021-01-12,113505.77333224234,0.0,113505.77333224234,1,0
2021-01-13,111275.89563068925,0.0,111275.89563068925,1,0
2021-01-14,113285.81706319943,0.0,113285.81706319943,1,0
2021-01-15,109804.43954670201,0.0,109804.43954670201,1,0
2021-01-19,110889.07363021954,0.0,110889.07363021954,1,0
2021-01-20,109015.60047936229,0.0,109015.60047936229,1,0
2021-01-21,109607.21099944793,0.0,109607.21099944793,1,0
2021-01-22,108583.27523061163,0.0,108583.27523061163,1,0
2021-01-25,106216.83315026907,0.0,106216.83315026907,1,0
2021-01-26,104093.12969470488,0.0,104093.12969470488,1,0
2021-01-27,100748.24143532032,0.0,100748.24143532032,1,0
2021-01-28,104176.54890193163,0.0,104176.54890193163,1,0
2021-01-29,100475.20145790464,0.0,100475.20145790464,1,0
2021-02-01,100839.2411026389,0.0,100839.2411026389,1,0
2021-02-02,103213.2909600466,0.0,103213.2909600466,1,0
2021-02-03,104199.28345296379,0.0,104199.28345296379,1,0
2021-02-04,106945.00121990085,0.0,106945.00121990085,1,0
2021-02-05,106489.87312768477,0.0,106489.87312768477,1,0
2021-02-08,108386.04668335755,0.0,108386.04668335755,1,0
2021-02-09,108507.44331272003,0.0,108507.44331272003,1,0
2021-02-10,108735.00052958475,0.0,108735.00052958475,1,0
2021-02-11,107862.71493804498,0.0,107862.71493804498,1,0
2021-02-12,107877.91000444526,0.0,107877.91000444526,1,0
2021-02-16,112762.47848864354,0.0,112762.47848864354,1,0
2021-02-17,112405.9919870278,0.0,112405.9919870278,1,0
2021-02-18,111298.62335247808,0.0,111298.62335247808,1,0
2021-02-19,113748.51195702069,0.0,113748.51195702069,1,0
2021-02-22,117768.41628523098,0.0,117768.41628523098,1,0
2021-02-23,120885.74732775081,0.0,120885.74732775081,1,0
2021-02-24,122971.56214134253,0.0,122971.56214134253,1,0
2021-02-25,118853.06402723517,0.0,118853.06402723517,1,0
2021-02-26,115293.56679633194,0.0,115293.56679633194,1,0
2021-03-01,117806.56443844986,0.0,117806.56443844986,1,0
2021-03-02,118096.84825526363,0.0,118096.84825526363,1,0
2021-03-03,119028.72582406583,0.0,119028.72582406583,1,0
2021-03-04,116859.4439985441,0.0,116859.4439985441,1,0
2021-03-05,119425.96924985097,0.0,119425.96924985097,1,0
2021-03-08,121579.92625334923,0.0,121579.92625334923,1,0
2021-03-09,116889.98437469784,0.0,116889.98437469784,1,0
2021-03-10,119624.50901182364,0.0,119624.50901182364,1,0
2021-03-11,118830.13142814656,0.0,118830.13142814656,1,0
2021-03-12,120350.14343218147,0.0,120350.14343218147,1,0
2021-03-15,118623.87462121555,0.0,118623.87462121555,1,0
2021-03-16,116592.06546384563,0.0,116592.06546384563,1,0
2021-03-17,116744.86295402094,0.0,116744.86295402094,1,0
2021-03-18,118684.996348983,0.0,118684.996348983,1,0
2021-03-19,116156.71486030157,0.0,116156.71486030157,1,0
2021-03-22,114132.53396772676,0.0,114132.53396772676,1,0
2021-03-23,111955.6238774099,0.0,111955.6238774099,1,0
2021-03-24,112872.1971119186,0.0,112872.1971119186,1,0
2021-03-25,116538.59248860327,0.0,116538.59248860327,1,0
2021-03-26,118501.65848265395,0.0,118501.65848265395,1,0
2021-03-29,114980.36403891622,0.0,114980.36403891622,1,0
2021-03-30,117531.59178517292,0.0,117531.59178517292,1,0
2021-03-31,115805.33663269365,0.0,115805.33663269365,1,0
2021-04-01,116996.9166666959,116996.9166666959,0.0,0,0
2021-04-05,116996.9166666959,116996.9166666959,0.0,0,1
2021-04-06,116996.9166666959,116996.9166666959,0.0,0,1
2021-04-07,116996.9166666959,116996.9166666959,0.0,0,1
2021-04-08,116996.9166666959,116996.9166666959,0.0,0,0
2021-04-09,116996.9166666959,116996.9166666959,0.0,0,0
2021-04-12,116996.9166666959,116996.9166666959,0.0,0,1
2021-04-13,116996.9166666959,116996.9166666959,0.0,0,1
2021-04-14,116996.9166666959,116996.9166666959,0.0,0,1
2021-04-15,116996.9166666959,116996.9166666959,0.0,0,0
2021-04-16,116996.9166666959,116996.9166666959,0.0,0,0
2021-04-19,116996.9166666959,116996.9166666959,0.0,0,1
2021-04-20,116996.9166666959,116996.9166666959,0.0,0,1
2021-04-21,116996.9166666959,116996.9166666959,0.0,0,1
2021-04-22,116996.9166666959,116996.9166666959,0.0,0,0
2021-04-23,116996.9166666959,116996.9166666959,0.0,0,0
2021-04-26,116612.63295411528,0.0,116612.63295411528,1,0
2021-04-27,117233.28086445233,0.0,117233.28086445233,1,0
2021-04-28,120267.53116106738,0.0,120267.53116106738,1,0
2021-04-29,121108.08342273928,0.0,121108.08342273928,1,0
2021-04-30,119426.97889939549,0.0,119426.97889939549,1,0
2021-05-03,120897.9189381529,0.0,120897.9189381529,1,0
2021-05-04,120267.51354828845,0.0,120267.51354828845,1,0
2021-05-05,122649.06067691323,0.0,122649.06067691323,1,0
2021-05-06,123629.68736941817,0.0,123629.68736941817,1,0
2021-05-07,124960.561783732,0.0,124960.561783732,1,0
2021-05-10,127832.37822666192,0.0,127832.37822666192,1,0
2021-05-11,125871.14245443096,0.0,125871.14245443096,1,0
2021-05-12,126781.71431874044,0.0,126781.71431874044,1,0
2021-05-13,126221.36375707145,0.0,126221.36375707145,1,0
2021-05-14,128602.90207930676,0.0,128602.90207930676,1,0
2021-05-17,131684.90061960198,0.0,131684.90061960198,1,0
2021-05-18,131054.4776169586,0.0,131054.4776169586,1,0
2021-05-19,129373.3730936148,0.0,129373.3730936148,1,0
2021-05-20,130984.4315951526,0.0,130984.4315951526,1,0
2021-05-21,131124.52363876457,0.0,131124.52363876457,1,0
2021-05-24,131895.021072241,0.0,131895.021072241,1,0
2021-05-25,129863.74808459354,0.0,129863.74808459354,1,0
2021-05-26,128532.83844472184,0.0,128532.83844472184,1,0
2021-05-27,127902.45947402577,0.0,127902.45947402577,1,0
2021-05-28,128462.8012293053,0.0,128462.8012293053,1,0
2021-06-01,129653.60121278609,0.0,129653.60121278609,1,0
2021-06-02,131474.74494140508,0.0,131474.74494140508,1,0
2021-06-03,131474.74494140508,0.0,131474.74494140508,1,0
2021-06-04,131544.79976960053,0.0,131544.79976960053,1,0
2021-06-07,131474.74494140508,0.0,131474.74494140508,1,0
2021-06-08,131684.90061960198,0.0,131684.90061960198,1,0
2021-06-09,131895.021072241,0.0,131895.021072241,1,0
2021-06-10,133085.79463655342,0.0,133085.79463655342,1,0
2021-06-11,134066.39490988996,0.0,134066.39490988996,1,0
2021-06-14,131965.07590043647,0.0,131965.07590043647,1,0
2021-06-15,133295.94150836085,0.0,133295.94150836085,1,0
2021-06-16,132035.113115853,0.0,132035.113115853,1,0
2021-06-17,128252.6455511084,0.0,128252.6455511084,1,0
2021-06-18,123699.75100400309,0.0,123699.75100400309,1,0
2021-06-21,128112.58873305429,0.0,128112.58873305429,1,0
2021-06-22,127482.20095596876,0.0,127482.20095596876,1,0
2021-06-23,126711.68590971339,0.0,126711.68590971339,1,0
2021-06-24,127762.3410112454,0.0,127762.3410112454,1,0
2021-06-25,128112.58873305429,0.0,128112.58873305429,1,0
2021-06-28,125871.14245443096,0.0,125871.14245443096,1,0
2021-06-29,125030.61661192746,0.0,125030.61661192746,1,0
2021-06-30,127692.32140860781,0.0,127692.32140860781,1,0
2021-07-01,129093.23303833816,0.0,129093.23303833816,1,0
2021-07-02,130073.83331167471,0.0,130073.83331167471,1,0
2021-07-06,129163.26144736522,0.0,129163.26144736522,1,0
2021-07-07,128182.63475486028,0.0,128182.63475486028,1,0
2021-07-08,127272.02766499293,0.0,127272.02766499293,1,0
2021-07-09,130774.26711056623,0.0,130774.26711056623,1,0
2021-07-12,129723.63842820261,0.0,129723.63842820261,1,0
2021-07-13,128042.56913041668,0.0,128042.56913041668,1,0
2021-07-14,125590.96717359647,0.0,125590.96717359647,1,0
2021-07-15,125100.68024651238,0.0,125100.68024651238,1,0
2021-07-16,123559.63254122272,0.0,123559.63254122272,1,0
2021-07-19,120337.5683764839,0.0,120337.5683764839,1,0
2021-07-20,122368.88539607872,122368.88539607872,0.0,0,1
2021-07-21,122368.88539607872,122368.88539607872,0.0,0,1
2021-07-22,122368.88539607872,122368.88539607872,0.0,0,0
2021-07-23,122368.88539607872,122368.88539607872,0.0,0,0
2021-07-26,122368.88539607872,122368.88539607872,0.0,0,1
2021-07-27,122368.88539607872,122368.88539607872,0.0,0,1
2021-07-28,122368.88539607872,122368.88539607872,0.0,0,1
2021-07-29,122368.88539607872,122368.88539607872,0.0,0,0
2021-07-30,122368.88539607872,122368.88539607872,0.0,0,0
2021-08-02,122368.88539607872,122368.88539607872,0.0,0,1
2021-08-03,122368.88539607872,122368.88539607872,0.0,0,1
2021-08-04,122368.88539607872,122368.88539607872,0.0,0,1
2021-08-05,122368.88539607872,122368.88539607872,0.0,0,0
2021-08-06,122368.88539607872,122368.88539607872,0.0,0,0
2021-08-09,122368.88539607872,122368.88539607872,0.0,0,1
2021-08-10,122368.88539607872,122368.88539607872,0.0,0,1
2021-08-11,122368.88539607872,122368.88539607872,0.0,0,1
2021-08-12,122368.88539607872,122368.88539607872,0.0,0,0
2021-08-13,122368.88539607872,122368.88539607872,0.0,0,0
2021-08-16,122368.88539607872,122368.88539607872,0.0,0,1
2021-08-17,122368.88539607872,122368.88539607872,0.0,0,1
2021-08-18,122368.88539607872,122368.88539607872,0.0,0,1
2021-08-19,122368.88539607872,122368.88539607872,0.0,0,0
2021-08-20,122368.88539607872,122368.88539607872,0.0,0,0
2021-08-23,122368.88539607872,122368.88539607872,0.0,0,1
2021-08-24,122368.88539607872,122368.88539607872,0.0,0,1
2021-08-25,122368.88539607872,122368.88539607872,0.0,0,1
2021-08-26,122368.88539607872,122368.88539607872,0.0,0,0
2021-08-27,122368.88539607872,122368.88539607872,0.0,0,0
2021-08-30,122368.88539607872,122368.88539607872,0.0,0,1
2021-08-31,122362.11003552935,0.0,122362.11003552935,1,0
2021-09-01,126045.52843133127,0.0,126045.52843133127,1,0
2021-09-02,126856.48640179496,0.0,126856.48640179496,1,0
2021-09-03,128075.0797204448,0.0,128075.0797204448,1,0
2021-09-07,127919.86052882558,0.0,127919.86052882558,1,0
2021-09-08,127999.6702963177,0.0,127999.6702963177,1,0
2021-09-09,123973.85261624333,0.0,123973.85261624333,1,0
2021-09-10,122441.89059720267,0.0,122441.89059720267,1,0
2021-09-13,121794.86488763186,0.0,121794.86488763186,1,0
2021-09-14,121120.26888511916,0.0,121120.26888511916,1,0
2021-09-15,122360.64974458962,0.0,122360.64974458962,1,0
2021-09-16,123783.82982389412,0.0,123783.82982389412,1,0
2021-09-17,126588.0946623475,0.0,126588.0946623475,1,0
2021-09-20,123345.70360088663,0.0,123345.70360088663,1,0
2021-09-21,123051.20185943699,0.0,123051.20185943699,1,0
2021-09-22,124780.45891970664,0.0,124780.45891970664,1,0
2021-09-23,123023.65103704095,0.0,123023.65103704095,1,0
2021-09-24,121089.80721611662,0.0,121089.80721611662,1,0
2021-09-27,117151.0812876871,0.0,117151.0812876871,1,0
2021-09-28,115904.87873500364,0.0,115904.87873500364,1,0
2021-09-29,116287.89357794613,0.0,116287.89357794613,1,0
2021-09-30,114626.82236928843,0.0,114626.82236928843,1,0
2021-10-01,113382.50261838992,113382.50261838992,0.0,0,0
2021-10-04,113382.50261838992,113382.50261838992,0.0,0,1
2021-10-05,113382.50261838992,113382.50261838992,0.0,0,1
2021-10-06,113382.50261838992,113382.50261838992,0.0,0,1
2021-10-07,113382.50261838992,113382.50261838992,0.0,0,0
2021-10-08,113382.50261838992,113382.50261838992,0.0,0,0
2021-10-11,114498.84055881487,0.0,114498.84055881487,1,0
2021-10-12,115232.07312203344,0.0,115232.07312203344,1,0
2021-10-13,112950.97559180691,0.0,112950.97559180691,1,0
2021-10-14,113217.1077717701,0.0,113217.1077717701,1,0
2021-10-15,114335.93980551536,0.0,114335.93980551536,1,0
2021-10-18,112668.57998280993,0.0,112668.57998280993,1,0
2021-10-19,113738.49309216201,0.0,113738.49309216201,1,0
2021-10-20,114987.64389087129,0.0,114987.64389087129,1,0
2021-10-21,114667.21758539358,0.0,114667.21758539358,1,0
2021-10-22,115590.5117472359,0.0,115590.5117472359,1,0
2021-10-25,115400.43177185617,0.0,115400.43177185617,1,0
2021-10-26,110979.5080229255,0.0,110979.5080229255,1,0
2021-10-27,110056.18629594921,0.0,110056.18629594921,1,0
2021-10-28,111077.253987932,0.0,111077.253987932,1,0
2021-10-29,110105.05927845246,0.0,110105.05927845246,1,0
2021-11-01,109752.06017301725,0.0,109752.06017301725,1,0
2021-11-02,108568.08253935695,0.0,108568.08253935695,1,0
2021-11-03,108595.22500792523,0.0,108595.22500792523,1,0
2021-11-04,103902.7479360201,0.0,103902.7479360201,1,0
2021-11-05,105374.56988682259,0.0,105374.56988682259,1,0
2021-11-08,105434.32190886031,0.0,105434.32190886031,1,0
2021-11-09,105771.04839688375,0.0,105771.04839688375,1,0
2021-11-10,105265.98163579355,0.0,105265.98163579355,1,0
2021-11-11,102645.81972664905,102645.81972664905,0.0,0,0
2021-11-12,102645.81972664905,102645.81972664905,0.0,0,0
2021-11-15,102645.81972664905,102645.81972664905,0.0,0,1
2021-11-16,102645.81972664905,102645.81972664905,0.0,0,1
2021-11-17,102645.81972664905,102645.81972664905,0.0,0,1
2021-11-18,102645.81972664905,102645.81972664905,0.0,0,0
2021-11-19,102645.81972664905,102645.81972664905,0.0,0,0
2021-11-22,101389.6725162529,0.0,101389.6725162529,1,0
2021-11-23,103471.01275208863,0.0,103471.01275208863,1,0
2021-11-24,103287.38120819812,0.0,103287.38120819812,1,0
2021-11-26,98206.41281595702,0.0,98206.41281595702,1,0
2021-11-29,99338.92954292681,0.0,99338.92954292681,1,0
2021-11-30,96538.26239877346,0.0,96538.26239877346,1,0
2021-12-01,95451.67240267481,0.0,95451.67240267481,1,0
2021-12-02,98022.76756668575,0.0,98022.76756668575,1,0
2021-12-03,93947.60859096362,93947.60859096362,0.0,0,0
2021-12-06,93947.60859096362,93947.60859096362,0.0,0,1
2021-12-07,93947.60859096362,93947.60859096362,0.0,0,1
2021-12-08,93947.60859096362,93947.60859096362,0.0,0,1
2021-12-09,93947.60859096362,93947.60859096362,0.0,0,0
2021-12-10,93947.60859096362,93947.60859096362,0.0,0,0
2021-12-13,93947.60859096362,93947.60859096362,0.0,0,1
2021-12-14,93741.03354853728,0.0,93741.03354853728,1,0
2021-12-15,91919.22899273949,0.0,91919.22899273949,1,0
2021-12-16,88260.23871137043,0.0,88260.23871137043,1,0
2021-12-17,86519.4410765373,0.0,86519.4410765373,1,0
2021-12-20,84317.765300723,84317.765300723,0.0,0,1
2021-12-21,84317.765300723,84317.765300723,0.0,0,1
2021-12-22,84317.765300723,84317.765300723,0.0,0,1
2021-12-23,84317.765300723,84317.765300723,0.0,0,0
2021-12-27,84317.765300723,84317.765300723,0.0,0,1
2021-12-28,84317.765300723,84317.765300723,0.0,0,1
2021-12-29,84317.765300723,84317.765300723,0.0,0,1
2021-12-30,84317.765300723,84317.765300723,0.0,0,0
2021-12-31,84317.765300723,84317.765300723,0.0,0,0
2022-01-03,84317.765300723,84317.765300723,0.0,0,1
2022-01-04,84317.765300723,84317.765300723,0.0,0,1
2022-01-05,84317.765300723,84317.765300723,0.0,0,1
2022-01-06,84317.765300723,84317.765300723,0.0,0,0
2022-01-07,84317.765300723,84317.765300723,0.0,0,0
2022-01-10,84317.765300723,84317.765300723,0.0,0,1
2022-01-11,84317.765300723,84317.765300723,0.0,0,1
2022-01-12,84317.765300723,84317.765300723,0.0,0,1
2022-01-13,84317.765300723,84317.765300723,0.0,0,0
2022-01-14,84317.765300723,84317.765300723,0.0,0,0
2022-01-18,84317.765300723,84317.765300723,0.0,0,1
2022-01-19,84317.765300723,84317.765300723,0.0,0,1
2022-01-20,84317.765300723,84317.765300723,0.0,0,1
2022-01-21,84317.765300723,84317.765300723,0.0,0,0
2022-01-24,84317.765300723,84317.765300723,0.0,0,1
2022-01-25,84317.765300723,84317.765300723,0.0,0,1
2022-01-26,84317.765300723,84317.765300723,0.0,0,1
2022-01-27,84317.765300723,84317.765300723,0.0,0,0
2022-01-28,84317.765300723,84317.765300723,0.0,0,0
2022-01-31,84317.765300723,84317.765300723,0.0,0,1
2022-02-01,84317.765300723,84317.765300723,0.0,0,1
2022-02-02,84317.765300723,84317.765300723,0.0,0,1
2022-02-03,84317.765300723,84317.765300723,0.0,0,0
2022-02-04,84317.765300723,84317.765300723,0.0,0,0
2022-02-07,84687.88496525597,0.0,84687.88496525597,1,0
2022-02-08,83309.07232373509,0.0,83309.07232373509,1,0
2022-02-09,83899.98961709268,0.0,83899.98961709268,1,0
2022-02-10,83909.36992615627,0.0,83909.36992615627,1,0
2022-02-11,87417.30183686907,0.0,87417.30183686907,1,0
2022-02-14,84903.5898960699,0.0,84903.5898960699,1,0
2022-02-15,82933.89370331037,0.0,82933.89370331037,1,0
2022-02-16,82821.33843007701,0.0,82821.33843007701,1,0
2022-02-17,81639.50384336182,0.0,81639.50384336182,1,0
2022-02-18,80644.14507693418,0.0,80644.14507693418,1,0
2022-02-22,79724.62172281022,0.0,79724.62172281022,1,0
2022-02-23,79610.8686043547,0.0,79610.8686043547,1,0
2022-02-24,79136.87618863239,0.0,79136.87618863239,1,0
2022-02-25,80283.93108625659,0.0,80283.93108625659,1,0
2022-02-28,79857.33791210651,0.0,79857.33791210651,1,0
2022-03-01,77895.03124339347,0.0,77895.03124339347,1,0
2022-03-02,79923.67491793033,0.0,79923.67491793033,1,0
2022-03-03,78681.82997269141,0.0,78681.82997269141,1,0
2022-03-04,79914.2102535694,0.0,79914.2102535694,1,0
2022-03-07,78302.65291117303,0.0,78302.65291117303,1,0
2022-03-08,79923.67491793033,0.0,79923.67491793033,1,0
2022-03-09,75221.73595109698,0.0,75221.73595109698,1,0
2022-03-10,76984.95568257097,0.0,76984.95568257097,1,0
2022-03-11,76567.85247937102,0.0,76567.85247937102,1,0
2022-03-14,74197.9157073487,0.0,74197.9157073487,1,0
2022-03-15,72595.68483806292,72595.68483806292,0.0,0,1
2022-03-16,72595.68483806292,72595.68483806292,0.0,0,1
2022-03-17,72595.68483806292,72595.68483806292,0.0,0,0
2022-03-18,72595.68483806292,72595.68483806292,0.0,0,0
2022-03-21,72595.68483806292,72595.68483806292,0.0,0,1
2022-03-22,72595.68483806292,72595.68483806292,0.0,0,1
2022-03-23,72595.68483806292,72595.68483806292,0.0,0,1
2022-03-24,72595.68483806292,72595.68483806292,0.0,0,0
2022-03-25,72595.68483806292,72595.68483806292,0.0,0,0
2022-03-28,72595.68483806292,72595.68483806292,0.0,0,1
2022-03-29,72595.68483806292,72595.68483806292,0.0,0,1
2022-03-30,72595.68483806292,72595.68483806292,0.0,0,1
2022-03-31,72595.68483806292,72595.68483806292,0.0,0,0
2022-04-01,72595.68483806292,72595.68483806292,0.0,0,0
2022-04-04,72595.68483806292,72595.68483806292,0.0,0,1
2022-04-05,72595.68483806292,72595.68483806292,0.0,0,1
2022-04-06,72595.68483806292,72595.68483806292,0.0,0,1
2022-04-07,72595.68483806292,72595.68483806292,0.0,0,0
2022-04-08,72595.68483806292,72595.68483806292,0.0,0,0
2022-04-11,72595.68483806292,72595.68483806292,0.0,0,1
2022-04-12,72595.68483806292,72595.68483806292,0.0,0,1
2022-04-13,72595.68483806292,72595.68483806292,0.0,0,1
2022-04-14,72595.68483806292,72595.68483806292,0.0,0,0
2022-04-18,72595.68483806292,72595.68483806292,0.0,0,1
2022-04-19,72595.68483806292,72595.68483806292,0.0,0,1
2022-04-20,72595.68483806292,72595.68483806292,0.0,0,1
2022-04-21,72595.68483806292,72595.68483806292,0.0,0,0
2022-04-22,72595.68483806292,72595.68483806292,0.0,0,0
2022-04-25,72595.68483806292,72595.68483806292,0.0,0,1
2022-04-26,72595.68483806292,72595.68483806292,0.0,0,1
2022-04-27,72595.68483806292,72595.68483806292,0.0,0,1
2022-04-28,72595.68483806292,72595.68483806292,0.0,0,0
2022-04-29,72595.68483806292,72595.68483806292,0.0,0,0
2022-05-02,72595.68483806292,72595.68483806292,0.0,0,1
2022-05-03,72595.68483806292,72595.68483806292,0.0,0,1
2022-05-04,72595.68483806292,72595.68483806292,0.0,0,1
2022-05-05,72595.68483806292,72595.68483806292,0.0,0,0
2022-05-06,72595.68483806292,72595.68483806292,0.0,0,0
2022-05-09,72595.68483806292,72595.68483806292,0.0,0,1
2022-05-10,72595.68483806292,72595.68483806292,0.0,0,1
2022-05-11,72595.68483806292,72595.68483806292,0.0,0,1
2022-05-12,72595.68483806292,72595.68483806292,0.0,0,0
2022-05-13,72595.68483806292,72595.68483806292,0.0,0,0
2022-05-16,72595.68483806292,72595.68483806292,0.0,0,1
2022-05-17,72595.68483806292,72595.68483806292,0.0,0,1
2022-05-18,72595.68483806292,72595.68483806292,0.0,0,1
2022-05-19,72595.68483806292,72595.68483806292,0.0,0,0
2022-05-20,72595.68483806292,72595.68483806292,0.0,0,0
2022-05-23,72595.68483806292,72595.68483806292,0.0,0,0
2022-05-24,72595.68483806292,72595.68483806292,0.0,0,0
2022-05-25,72595.68483806292,72595.68483806292,0.0,0,0
2022-05-26,72595.68483806292,72595.68483806292,0.0,0,0
2022-05-27,72595.68483806292,72595.68483806292,0.0,0,0
2022-05-31,72595.68483806292,72595.68483806292,0.0,0,0
2022-06-01,72595.68483806292,72595.68483806292,0.0,0,0
2022-06-02,72595.68483806292,72595.68483806292,0.0,0,0
2022-06-03,72595.68483806292,72595.68483806292,0.0,0,0
2022-06-06,72595.68483806292,72595.68483806292,0.0,0,0
2022-06-07,72595.68483806292,72595.68483806292,0.0,0,0
2022-06-08,72595.68483806292,72595.68483806292,0.0,0,0
2022-06-09,72595.68483806292,72595.68483806292,0.0,0,0
2022-06-10,72595.68483806292,72595.68483806292,0.0,0,0
2022-06-13,72595.68483806292,72595.68483806292,0.0,0,1
2022-06-14,72595.68483806292,72595.68483806292,0.0,0,1
2022-06-15,72595.68483806292,72595.68483806292,0.0,0,1
2022-06-16,72595.68483806292,72595.68483806292,0.0,0,0
2022-06-17,72595.68483806292,72595.68483806292,0.0,0,0
2022-06-21,72595.68483806292,72595.68483806292,0.0,0,1
2022-06-22,72595.68483806292,72595.68483806292,0.0,0,1
2022-06-23,72595.68483806292,72595.68483806292,0.0,0,1
2022-06-24,72595.68483806292,72595.68483806292,0.0,0,0
2022-06-27,72595.68483806292,72595.68483806292,0.0,0,1
2022-06-28,72595.68483806292,72595.68483806292,0.0,0,1
2022-06-29,72595.68483806292,72595.68483806292,0.0,0,1
2022-06-30,72595.68483806292,72595.68483806292,0.0,0,0
2022-07-01,72595.68483806292,72595.68483806292,0.0,0,0
2022-07-05,72595.68483806292,72595.68483806292,0.0,0,1
2022-07-06,72595.68483806292,72595.68483806292,0.0,0,1
2022-07-07,72595.68483806292,72595.68483806292,0.0,0,1
2022-07-08,72595.68483806292,72595.68483806292,0.0,0,0
2022-07-11,72595.68483806292,72595.68483806292,0.0,0,0
2022-07-12,72595.68483806292,72595.68483806292,0.0,0,0
2022-07-13,72595.68483806292,72595.68483806292,0.0,0,0
2022-07-14,72595.68483806292,72595.68483806292,0.0,0,0
2022-07-15,72595.68483806292,72595.68483806292,0.0,0,0
2022-07-18,72595.68483806292,72595.68483806292,0.0,0,1
2022-07-19,72595.68483806292,72595.68483806292,0.0,0,1
2022-07-20,72595.68483806292,72595.68483806292,0.0,0,1
2022-07-21,72595.68483806292,72595.68483806292,0.0,0,0
2022-07-22,72595.68483806292,72595.68483806292,0.0,0,0
2022-07-25,72595.68483806292,72595.68483806292,0.0,0,1
2022-07-26,72595.68483806292,72595.68483806292,0.0,0,1
2022-07-27,72595.68483806292,72595.68483806292,0.0,0,1
2022-07-28,72595.68483806292,72595.68483806292,0.0,0,0
2022-07-29,72595.68483806292,72595.68483806292,0.0,0,0
2022-08-01,72595.68483806292,72595.68483806292,0.0,0,1
2022-08-02,72595.68483806292,72595.68483806292,0.0,0,1
2022-08-03,72595.68483806292,72595.68483806292,0.0,0,1
2022-08-04,72595.68483806292,72595.68483806292,0.0,0,0
2022-08-05,72595.68483806292,72595.68483806292,0.0,0,0
2022-08-08,72595.68483806292,72595.68483806292,0.0,0,1
2022-08-09,72595.68483806292,72595.68483806292,0.0,0,1
2022-08-10,72595.68483806292,72595.68483806292,0.0,0,1
2022-08-11,72595.68483806292,72595.68483806292,0.0,0,0
2022-08-12,72595.68483806292,72595.68483806292,0.0,0,0
2022-08-15,72595.68483806292,72595.68483806292,0.0,0,1
2022-08-16,72595.68483806292,72595.68483806292,0.0,0,1
2022-08-17,72595.68483806292,72595.68483806292,0.0,0,1
2022-08-18,72595.68483806292,72595.68483806292,0.0,0,0
2022-08-19,72595.68483806292,72595.68483806292,0.0,0,0
2022-08-22,72595.68483806292,72595.68483806292,0.0,0,1
2022-08-23,72595.68483806292,72595.68483806292,0.0,0,1
2022-08-24,72595.68483806292,72595.68483806292,0.0,0,1
2022-08-25,72595.68483806292,72595.68483806292,0.0,0,0
2022-08-26,72595.68483806292,72595.68483806292,0.0,0,0
2022-08-29,72595.68483806292,72595.68483806292,0.0,0,1
2022-08-30,72595.68483806292,72595.68483806292,0.0,0,1
2022-08-31,72595.68483806292,72595.68483806292,0.0,0,1
2022-09-01,72595.68483806292,72595.68483806292,0.0,0,0
2022-09-02,72595.68483806292,72595.68483806292,0.0,0,0
2022-09-06,72595.68483806292,72595.68483806292,0.0,0,1
2022-09-07,72595.68483806292,72595.68483806292,0.0,0,1
2022-09-08,72595.68483806292,72595.68483806292,0.0,0,1
2022-09-09,72595.68483806292,72595.68483806292,0.0,0,0
2022-09-12,72595.68483806292,72595.68483806292,0.0,0,1
2022-09-13,72595.68483806292,72595.68483806292,0.0,0,1
2022-09-14,72595.68483806292,72595.68483806292,0.0,0,1
2022-09-15,72595.68483806292,72595.68483806292,0.0,0,0
2022-09-16,72595.68483806292,72595.68483806292,0.0,0,0
2022-09-19,72595.68483806292,72595.68483806292,0.0,0,1
2022-09-20,72595.68483806292,72595.68483806292,0.0,0,1
2022-09-21,72595.68483806292,72595.68483806292,0.0,0,1
2022-09-22,72595.68483806292,72595.68483806292,0.0,0,0
2022-09-23,72595.68483806292,72595.68483806292,0.0,0,0
2022-09-26,72595.68483806292,72595.68483806292,0.0,0,1
2022-09-27,72595.68483806292,72595.68483806292,0.0,0,1
2022-09-28,72595.68483806292,72595.68483806292,0.0,0,1
2022-09-29,72595.68483806292,72595.68483806292,0.0,0,0
2022-09-30,72595.68483806292,72595.68483806292,0.0,0,0
2022-10-03,72595.68483806292,72595.68483806292,0.0,0,1
2022-10-04,72595.68483806292,72595.68483806292,0.0,0,1
2022-10-05,72595.68483806292,72595.68483806292,0.0,0,1
2022-10-06,72595.68483806292,72595.68483806292,0.0,0,0
2022-10-07,72595.68483806292,72595.68483806292,0.0,0,0
2022-10-10,72595.68483806292,72595.68483806292,0.0,0,1
2022-10-11,72595.68483806292,72595.68483806292,0.0,0,1
2022-10-12,72595.68483806292,72595.68483806292,0.0,0,1
2022-10-13,72595.68483806292,72595.68483806292,0.0,0,0
2022-10-14,72595.68483806292,72595.68483806292,0.0,0,0
2022-10-17,72595.68483806292,72595.68483806292,0.0,0,1
2022-10-18,72595.68483806292,72595.68483806292,0.0,0,1
2022-10-19,72595.68483806292,72595.68483806292,0.0,0,1
2022-10-20,72595.68483806292,72595.68483806292,0.0,0,0
2022-10-21,72595.68483806292,72595.68483806292,0.0,0,0
2022-10-24,72595.68483806292,72595.68483806292,0.0,0,1
2022-10-25,72595.68483806292,72595.68483806292,0.0,0,1
2022-10-26,72595.68483806292,72595.68483806292,0.0,0,1
2022-10-27,72595.68483806292,72595.68483806292,0.0,0,0
2022-10-28,72595.68483806292,72595.68483806292,0.0,0,0
2022-10-31,72595.68483806292,72595.68483806292,0.0,0,1
2022-11-01,72595.68483806292,72595.68483806292,0.0,0,1
2022-11-02,72595.68483806292,72595.68483806292,0.0,0,1
2022-11-03,72595.68483806292,72595.68483806292,0.0,0,0
2022-11-04,72595.68483806292,72595.68483806292,0.0,0,0
2022-11-07,72595.68483806292,72595.68483806292,0.0,0,1
2022-11-08,72595.68483806292,72595.68483806292,0.0,0,1
2022-11-09,72595.68483806292,72595.68483806292,0.0,0,1
2022-11-10,72595.68483806292,72595.68483806292,0.0,0,0
2022-11-11,72595.68483806292,72595.68483806292,0.0,0,0
2022-11-14,72595.68483806292,72595.68483806292,0.0,0,1
2022-11-15,72595.68483806292,72595.68483806292,0.0,0,1
2022-11-16,72595.68483806292,72595.68483806292,0.0,0,1
2022-11-17,72595.68483806292,72595.68483806292,0.0,0,0
2022-11-18,72595.68483806292,72595.68483806292,0.0,0,0
2022-11-21,72595.68483806292,72595.68483806292,0.0,0,1
2022-11-22,72595.68483806292,72595.68483806292,0.0,0,1
2022-11-23,72595.68483806292,72595.68483806292,0.0,0,1
2022-11-25,72595.68483806292,72595.68483806292,0.0,0,0
2022-11-28,72595.68483806292,72595.68483806292,0.0,0,1
2022-11-29,72595.68483806292,72595.68483806292,0.0,0,1
2022-11-30,72595.68483806292,72595.68483806292,0.0,0,1
2022-12-01,72595.68483806292,72595.68483806292,0.0,0,0
2022-12-02,72595.68483806292,72595.68483806292,0.0,0,0
2022-12-05,72595.68483806292,72595.68483806292,0.0,0,1
2022-12-06,72595.68483806292,72595.68483806292,0.0,0,1
2022-12-07,72595.68483806292,72595.68483806292,0.0,0,1
2022-12-08,72595.68483806292,72595.68483806292,0.0,0,0
2022-12-09,72595.68483806292,72595.68483806292,0.0,0,0
2022-12-12,72595.68483806292,72595.68483806292,0.0,0,1
2022-12-13,72595.68483806292,72595.68483806292,0.0,0,1
2022-12-14,72595.68483806292,72595.68483806292,0.0,0,1
2022-12-15,72595.68483806292,72595.68483806292,0.0,0,0
2022-12-16,72595.68483806292,72595.68483806292,0.0,0,0
2022-12-19,72595.68483806292,72595.68483806292,0.0,0,1
2022-12-20,72595.68483806292,72595.68483806292,0.0,0,1
2022-12-21,72595.68483806292,72595.68483806292,0.0,0,1
2022-12-22,72595.68483806292,72595.68483806292,0.0,0,0
2022-12-23,72595.68483806292,72595.68483806292,0.0,0,0
2022-12-27,72595.68483806292,72595.68483806292,0.0,0,1
2022-12-28,72595.68483806292,72595.68483806292,0.0,0,1
2022-12-29,72595.68483806292,72595.68483806292,0.0,0,1
2022-12-30,72595.68483806292,72595.68483806292,0.0,0,0
2023-01-03,72595.68483806292,72595.68483806292,0.0,0,1
2023-01-04,72595.68483806292,72595.68483806292,0.0,0,1
2023-01-05,72595.68483806292,72595.68483806292,0.0,0,1
2023-01-06,72595.68483806292,72595.68483806292,0.0,0,0
2023-01-09,72595.68483806292,72595.68483806292,0.0,0,1
2023-01-10,72595.68483806292,72595.68483806292,0.0,0,1
2023-01-11,72595.68483806292,72595.68483806292,0.0,0,1
2023-01-12,72595.68483806292,72595.68483806292,0.0,0,0
2023-01-13,72595.68483806292,72595.68483806292,0.0,0,0
2023-01-17,72595.68483806292,72595.68483806292,0.0,0,1
2023-01-18,72595.68483806292,72595.68483806292,0.0,0,1
2023-01-19,72595.68483806292,72595.68483806292,0.0,0,1
2023-01-20,72595.68483806292,72595.68483806292,0.0,0,0
2023-01-23,72595.68483806292,72595.68483806292,0.0,0,1
2023-01-24,72595.68483806292,72595.68483806292,0.0,0,1
2023-01-25,72595.68483806292,72595.68483806292,0.0,0,1
2023-01-26,72595.68483806292,72595.68483806292,0.0,0,0
2023-01-27,72595.68483806292,72595.68483806292,0.0,0,0
2023-01-30,72595.68483806292,72595.68483806292,0.0,0,1
2023-01-31,72595.68483806292,72595.68483806292,0.0,0,1
2023-02-01,72595.68483806292,72595.68483806292,0.0,0,1
2023-02-02,72595.68483806292,72595.68483806292,0.0,0,0
2023-02-03,72595.68483806292,72595.68483806292,0.0,0,0
2023-02-06,72595.68483806292,72595.68483806292,0.0,0,1
2023-02-07,72595.68483806292,72595.68483806292,0.0,0,1
2023-02-08,72595.68483806292,72595.68483806292,0.0,0,1
2023-02-09,72595.68483806292,72595.68483806292,0.0,0,0
2023-02-10,72595.68483806292,72595.68483806292,0.0,0,0
2023-02-13,72595.68483806292,72595.68483806292,0.0,0,1
2023-02-14,72595.68483806292,72595.68483806292,0.0,0,1
2023-02-15,72595.68483806292,72595.68483806292,0.0,0,1
2023-02-16,72595.68483806292,72595.68483806292,0.0,0,0
2023-02-17,72595.68483806292,72595.68483806292,0.0,0,0
2023-02-21,72595.68483806292,72595.68483806292,0.0,0,1
2023-02-22,72595.68483806292,72595.68483806292,0.0,0,1
2023-02-23,72595.68483806292,72595.68483806292,0.0,0,1
2023-02-24,72595.68483806292,72595.68483806292,0.0,0,0
2023-02-27,72595.68483806292,72595.68483806292,0.0,0,1
2023-02-28,72595.68483806292,72595.68483806292,0.0,0,1
2023-03-01,72595.68483806292,72595.68483806292,0.0,0,1
2023-03-02,72595.68483806292,72595.68483806292,0.0,0,0
2023-03-03,72595.68483806292,72595.68483806292,0.0,0,0
2023-03-06,72595.68483806292,72595.68483806292,0.0,0,1
2023-03-07,72595.68483806292,72595.68483806292,0.0,0,1
2023-03-08,72595.68483806292,72595.68483806292,0.0,0,1
2023-03-09,72595.68483806292,72595.68483806292,0.0,0,0
2023-03-10,72595.68483806292,72595.68483806292,0.0,0,0
2023-03-13,72595.68483806292,72595.68483806292,0.0,0,1
2023-03-14,72595.68483806292,72595.68483806292,0.0,0,1
2023-03-15,72595.68483806292,72595.68483806292,0.0,0,1
2023-03-16,72595.68483806292,72595.68483806292,0.0,0,0
2023-03-17,72595.68483806292,72595.68483806292,0.0,0,0
2023-03-20,72595.68483806292,72595.68483806292,0.0,0,1
2023-03-21,72595.68483806292,72595.68483806292,0.0,0,1
2023-03-22,72595.68483806292,72595.68483806292,0.0,0,1
2023-03-23,72595.68483806292,72595.68483806292,0.0,0,0
2023-03-24,72595.68483806292,72595.68483806292,0.0,0,0
2023-03-27,72595.68483806292,72595.68483806292,0.0,0,1
2023-03-28,72595.68483806292,72595.68483806292,0.0,0,1
2023-03-29,72595.68483806292,72595.68483806292,0.0,0,1
2023-03-30,72595.68483806292,72595.68483806292,0.0,0,0
2023-03-31,72595.68483806292,72595.68483806292,0.0,0,0
2023-04-03,72595.68483806292,72595.68483806292,0.0,0,1
2023-04-04,72595.68483806292,72595.68483806292,0.0,0,1
2023-04-05,72595.68483806292,72595.68483806292,0.0,0,1
2023-04-06,72595.68483806292,72595.68483806292,0.0,0,0
2023-04-10,72802.42113861104,0.0,72802.42113861104,1,0
2023-04-11,72900.34298786295,0.0,72900.34298786295,1,0
2023-04-12,73107.07796020694,0.0,73107.07796020694,1,0
2023-04-13,74412.75242455387,0.0,74412.75242455387,1,0
2023-04-14,74064.5720139763,0.0,74064.5720139763,1,0
2023-04-17,73672.86801441706,0.0,73672.86801441706,1,0
2023-04-18,73792.55580879771,0.0,73792.55580879771,1,0
2023-04-19,73248.52339844052,0.0,73248.52339844052,1,0
2023-04-20,72791.53816604668,0.0,72791.53816604668,1,0
2023-04-21,72660.96739910166,0.0,72660.96739910166,1,0
2023-04-24,72084.29437232717,0.0,72084.29437232717,1,0
2023-04-25,68733.05273222072,0.0,68733.05273222072,1,0
2023-04-26,68983.31129354637,0.0,68983.31129354637,1,0
2023-04-27,68613.36908847796,0.0,68613.36908847796,1,0
2023-04-28,68602.4861159136,0.0,68602.4861159136,1,0
2023-05-01,68341.35288329938,0.0,68341.35288329938,1,0
2023-05-02,66850.7010904614,0.0,66850.7010904614,1,0
2023-05-03,65817.04283129306,0.0,65817.04283129306,1,0
2023-05-04,66567.80606335634,0.0,66567.80606335634,1,0
2023-05-05,70278.10278532894,0.0,70278.10278532894,1,0
2023-05-08,71899.32534511192,0.0,71899.32534511192,1,0
2023-05-09,72247.50575568949,0.0,72247.50575568949,1,0
2023-05-10,72911.22596042731,0.0,72911.22596042731,1,0
2023-05-11,73444.37539822015,0.0,73444.37539822015,1,0
2023-05-12,73738.14924725167,0.0,73738.14924725167,1,0
2023-05-15,74597.72145176912,0.0,74597.72145176912,1,0
2023-05-16,74325.70524659053,0.0,74325.70524659053,1,0
2023-05-17,74456.27601353553,0.0,74456.27601353553,1,0
2023-05-18,74140.73621937528,0.0,74140.73621937528,1,0
2023-05-19,75761.95047788246,0.0,75761.95047788246,1,0
2023-05-22,75642.26268350182,0.0,75642.26268350182,1,0
2023-05-23,74086.32965782924,0.0,74086.32965782924,1,0
2023-05-24,72454.23242675768,0.0,72454.23242675768,1,0
2023-05-25,73085.3120150782,0.0,73085.3120150782,1,0
2023-05-26,73738.14924725167,0.0,73738.14924725167,1,0
2023-05-30,74575.96380791618,0.0,74575.96380791618,1,0
2023-05-31,74347.47119171926,0.0,74347.47119171926,1,0
2023-06-01,74684.76862973245,0.0,74684.76862973245,1,0
2023-06-02,74129.8532468109,0.0,74129.8532468109,1,0
2023-06-05,77546.37611975198,0.0,77546.37611975198,1,0
2023-06-06,75664.02862863055,0.0,75664.02862863055,1,0
2023-06-07,72965.62422069756,0.0,72965.62422069756,1,0
2023-06-08,75076.4726292917,0.0,75076.4726292917,1,0
2023-06-09,73999.2907811417,0.0,73999.2907811417,1,0
2023-06-12,75990.4430940794,0.0,75990.4430940794,1,0
2023-06-13,76697.68688779889,0.0,76697.68688779889,1,0
2023-06-14,77774.8770372247,0.0,77774.8770372247,1,0
2023-06-15,80070.6861717583,0.0,80070.6861717583,1,0
2023-06-16,79189.3563233879,0.0,79189.3563233879,1,0
2023-06-20,77970.7290370043,0.0,77970.7290370043,1,0
2023-06-21,77372.29006510109,0.0,77372.29006510109,1,0
2023-06-22,78188.33868063687,0.0,78188.33868063687,1,0
2023-06-23,77894.55653032954,0.0,77894.55653032954,1,0
2023-06-26,77317.88350355506,0.0,77317.88350355506,1,0
2023-06-27,80146.85867843305,0.0,80146.85867843305,1,0
2023-06-28,80875.8601160055,0.0,80875.8601160055,1,0
2023-06-29,81702.78340282985,0.0,81702.78340282985,1,0
2023-06-30,82246.81581318703,0.0,82246.81581318703,1,0
2023-07-03,81234.92349914742,0.0,81234.92349914742,1,0
2023-07-05,80764.58750859743,0.0,80764.58750859743,1,0
2023-07-06,80555.59568392676,0.0,80555.59568392676,1,0
2023-07-07,79641.72831266576,0.0,79641.72831266576,1,0
2023-07-10,80354.78914996267,0.0,80354.78914996267,1,0
2023-07-11,81510.44670407489,0.0,81510.44670407489,1,0
2023-07-12,82102.60291738715,0.0,82102.60291738715,1,0
2023-07-13,82075.9880125121,0.0,82075.9880125121,1,0
2023-07-14,82475.53569264556,0.0,82475.53569264556,1,0
2023-07-17,82412.0297842367,0.0,82412.0297842367,1,0
2023-07-18,81584.21600106377,0.0,81584.21600106377,1,0
2023-07-19,81606.74461562492,0.0,81606.74461562492,1,0
2023-07-20,81563.71464406118,0.0,81563.71464406118,1,0
2023-07-21,81446.91537550854,0.0,81446.91537550854,1,0
2023-07-24,82942.72005677737,0.0,82942.72005677737,1,0
2023-07-25,82223.50118633243,0.0,82223.50118633243,1,0
2023-07-26,82455.05340076105,0.0,82455.05340076105,1,0
2023-07-27,80834.2514501543,0.0,80834.2514501543,1,0
2023-07-28,80518.73010055043,0.0,80518.73010055043,1,0
2023-07-31,80789.1815109533,0.0,80789.1815109533,1,0
2023-08-01,81360.8681424598,0.0,81360.8681424598,1,0
2023-08-02,79916.29778857938,0.0,79916.29778857938,1,0
2023-08-03,80528.94900385488,0.0,80528.94900385488,1,0
2023-08-04,80188.80823173764,0.0,80188.80823173764,1,0
2023-08-07,81319.87813853334,0.0,81319.87813853334,1,0
2023-08-08,80565.8400073887,0.0,80565.8400073887,1,0
2023-08-09,80664.18424161537,0.0,80664.18424161537,1,0
2023-08-10,81375.20511127502,0.0,81375.20511127502,1,0
2023-08-11,80932.62745957782,0.0,80932.62745957782,1,0
2023-08-14,81670.26323411251,0.0,81670.26323411251,1,0
2023-08-15,80824.01983677111,0.0,80824.01983677111,1,0
2023-08-16,80807.6301902399,0.0,80807.6301902399,1,0
2023-08-17,80449.04709387543,0.0,80449.04709387543,1,0
2023-08-18,80356.82911759993,0.0,80356.82911759993,1,0
2023-08-21,80567.8926851047,0.0,80567.8926851047,1,0
2023-08-22,81518.6383498208,0.0,81518.6383498208,1,0
2023-08-23,82178.41853705268,0.0,82178.41853705268,1,0
2023-08-24,81483.81273408173,0.0,81483.81273408173,1,0
2023-08-25,82553.39763498773,0.0,82553.39763498773,1,0
2023-08-28,83485.70097545661,0.0,83485.70097545661,1,0
2023-08-29,84348.35308444733,0.0,84348.35308444733,1,0
2023-08-30,84811.42573810776,0.0,84811.42573810776,1,0
2023-08-31,84551.20594108808,0.0,84551.20594108808,1,0
2023-09-01,85151.57286526436,0.0,85151.57286526436,1,0
2023-09-05,84317.6074039828,0.0,84317.6074039828,1,0
2023-09-06,84661.84717649268,0.0,84661.84717649268,1,0
2023-09-07,84956.90529933019,0.0,84956.90529933019,1,0
2023-09-08,85001.98794860992,0.0,85001.98794860992,1,0
2023-09-11,85381.05969189825,0.0,85381.05969189825,1,0
2023-09-12,85294.99974877079,0.0,85294.99974877079,1,0
2023-09-13,85301.14507184007,0.0,85301.14507184007,1,0
2023-09-14,84694.62646955512,0.0,84694.62646955512,1,0
2023-09-15,84893.39303588195,0.0,84893.39303588195,1,0
2023-09-18,85471.22499045775,0.0,85471.22499045775,1,0
2023-09-19,84733.57650584432,0.0,84733.57650584432,1,0
2023-09-20,84116.80722505807,0.0,84116.80722505807,1,0
2023-09-21,82649.70190157714,0.0,82649.70190157714,1,0
2023-09-22,82416.12242958997,0.0,82416.12242958997,1,0
2023-09-25,82471.44304729228,0.0,82471.44304729228,1,0
2023-09-26,81014.57569223392,0.0,81014.57569223392,1,0
2023-09-27,80984.41293721317,0.0,80984.41293721317,1,0
2023-09-28,80167.68297835134,0.0,80167.68297835134,1,0
2023-09-29,79773.21558270723,0.0,79773.21558270723,1,0
2023-10-02,80234.35787112547,0.0,80234.35787112547,1,0
2023-10-03,79578.74641059405,0.0,79578.74641059405,1,0
2023-10-04,80262.14422043526,0.0,80262.14422043526,1,0
2023-10-05,81112.20721655224,0.0,81112.20721655224,1,0
2023-10-06,80862.1741640833,0.0,80862.1741640833,1,0
2023-10-09,80889.9693316569,0.0,80889.9693316569,1,0
2023-10-10,81084.4385037701,0.0,81084.4385037701,1,0
2023-10-11,81562.24731081592,0.0,81562.24731081592,1,0
2023-10-12,81701.14378430955,0.0,81701.14378430955,1,0
2023-10-13,82301.20018274906,0.0,82301.20018274906,1,0
2023-10-16,83256.82661510451,0.0,83256.82661510451,1,0
2023-10-17,85390.3350012384,0.0,85390.3350012384,1,0
2023-10-18,84573.60504237658,0.0,84573.60504237658,1,0
2023-10-19,82823.46185773224,0.0,82823.46185773224,1,0
2023-10-20,81106.64289207922,0.0,81106.64289207922,1,0
2023-10-23,80795.52572610065,0.0,80795.52572610065,1,0
2023-10-24,81590.02484186189,0.0,81590.02484186189,1,0
2023-10-25,82784.55567774024,0.0,82784.55567774024,1,0
2023-10-26,82623.4548159375,0.0,82623.4548159375,1,0
2023-10-27,81139.9847475982,0.0,81139.9847475982,1,0
2023-10-30,81356.64948975669,0.0,81356.64948975669,1,0
2023-10-31,82729.00061564833,0.0,82729.00061564833,1,0
2023-11-01,92496.46235779043,0.0,92496.46235779043,1,0
2023-11-02,91001.89891356039,0.0,91001.89891356039,1,0
2023-11-03,90840.78041523,0.0,90840.78041523,1,0
2023-11-06,89785.15487110909,0.0,89785.15487110909,1,0
2023-11-07,88435.03458831804,0.0,88435.03458831804,1,0
2023-11-08,88635.03281184896,0.0,88635.03281184896,1,0
2023-11-09,89579.55705004986,0.0,89579.55705004986,1,0
2023-11-10,90596.30286897025,0.0,90596.30286897025,1,0
2023-11-13,90168.48479954334,0.0,90168.48479954334,1,0
2023-11-14,90601.8848299709,0.0,90601.8848299709,1,0
2023-11-15,88796.17776497082,0.0,88796.17776497082,1,0
2023-11-16,88862.83502121731,0.0,88862.83502121731,1,0
2023-11-17,89607.35221762347,0.0,89607.35221762347,1,0
2023-11-20,90024.04163810435,0.0,90024.04163810435,1,0
2023-11-21,91557.51126232637,0.0,91557.51126232637,1,0
2023-11-22,91085.24914322593,0.0,91085.24914322593,1,0
2023-11-24,92525.01589605291,0.0,92525.01589605291,1,0
2023-11-27,93964.79146714372,0.0,93964.79146714372,1,0
2023-11-28,91526.10942484869,0.0,91526.10942484869,1,0
2023-11-29,91408.92351689003,0.0,91408.92351689003,1,0
2023-11-30,93763.89378070274,0.0,93763.89378070274,1,0
2023-12-01,93920.15341566605,0.0,93920.15341566605,1,0
2023-12-04,95666.83984089133,0.0,95666.83984089133,1,0
2023-12-05,95633.38334794265,0.0,95633.38334794265,1,0
2023-12-06,94801.85634238395,0.0,94801.85634238395,1,0
2023-12-07,93574.15119799926,0.0,93574.15119799926,1,0
2023-12-08,93574.15119799926,0.0,93574.15119799926,1,0
2023-12-11,94003.85637588454,0.0,94003.85637588454,1,0
2023-12-12,94907.90478313275,0.0,94907.90478313275,1,0
2023-12-13,94534.01921525413,0.0,94534.01921525413,1,0
2023-12-14,91687.94220254885,0.0,91687.94220254885,1,0
2023-12-15,91124.30523370292,0.0,91124.30523370292,1,0
2023-12-18,92435.73097483374,0.0,92435.73097483374,1,0
2023-12-19,93417.89156303597,0.0,93417.89156303597,1,0
2023-12-20,88560.04904551641,0.0,88560.04904551641,1,0
2023-12-21,89302.61112531001,0.0,89302.61112531001,1,0
2023-12-22,89331.92151127345,0.0,89331.92151127345,1,0
2023-12-26,90230.80813431206,0.0,90230.80813431206,1,0
2023-12-27,90846.35605682408,0.0,90846.35605682408,1,0
2023-12-28,91891.80206399983,0.0,91891.80206399983,1,0
2023-12-29,91452.1239115884,0.0,91452.1239115884,1,0
2024-01-02,89703.19882401028,0.0,89703.19882401028,1,0
2024-01-03,87309.42288227663,0.0,87309.42288227663,1,0
2024-01-04,86996.76634146667,0.0,86996.76634146667,1,0
2024-01-05,87162.86349813949,0.0,87162.86349813949,1,0
2024-01-08,88149.68873338835,0.0,88149.68873338835,1,0
2024-01-09,89351.4592838091,0.0,89351.4592838091,1,0
2024-01-10,87446.20965298598,0.0,87446.20965298598,1,0
2024-01-11,89185.36212713631,0.0,89185.36212713631,1,0
2024-01-12,88579.59427237199,0.0,88579.59427237199,1,0
2024-01-16,88520.96604612518,0.0,88520.96604612518,1,0
2024-01-17,88237.61989127868,0.0,88237.61989127868,1,0
2024-01-18,88569.8216589442,0.0,88569.8216589442,1,0
2024-01-19,89087.65835581817,0.0,89087.65835581817,1,0
2024-01-22,86986.99372803888,0.0,86986.99372803888,1,0
2024-01-23,87954.27373643217,0.0,87954.27373643217,1,0
2024-01-24,87299.65026884884,0.0,87299.65026884884,1,0
2024-01-25,87719.78319440469,0.0,87719.78319440469,1,0
2024-01-26,87241.02949692195,0.0,87241.02949692195,1,0
2024-01-29,87065.15972682135,0.0,87065.15972682135,1,0
2024-01-30,86791.58618540264,0.0,86791.58618540264,1,0
2024-01-31,86811.1239579383,0.0,86811.1239579383,1,0
2024-02-01,87338.73326824007,0.0,87338.73326824007,1,0
2024-02-02,86176.03826289062,0.0,86176.03826289062,1,0
2024-02-05,85404.17325145351,0.0,85404.17325145351,1,0
2024-02-06,86801.3513445105,0.0,86801.3513445105,1,0
2024-02-07,85648.43640690878,0.0,85648.43640690878,1,0
2024-02-08,85980.63072025437,0.0,85980.63072025437,1,0
2024-02-09,87475.52003894943,0.0,87475.52003894943,1,0
2024-02-12,87446.20965298598,0.0,87446.20965298598,1,0
2024-02-13,85736.3675647991,0.0,85736.3675647991,1,0
2024-02-14,87348.50588166786,0.0,87348.50588166786,1,0
2024-02-15,91676.849294508,0.0,91676.849294508,1,0
2024-02-16,91110.15698481501,0.0,91110.15698481501,1,0
2024-02-20,89937.69682035768,0.0,89937.69682035768,1,0
2024-02-21,89107.19612835383,0.0,89107.19612835383,1,0
2024-02-22,91344.64752684248,0.0,91344.64752684248,1,0
2024-02-23,93132.65561381183,0.0,93132.65561381183,1,0
2024-02-26,90054.93836421146,0.0,90054.93836421146,1,0
2024-02-27,91393.50313966151,0.0,91393.50313966151,1,0
2024-02-28,92116.51999259953,0.0,92116.51999259953,1,0
2024-02-29,94754.56654410837,0.0,94754.56654410837,1,0
2024-03-01,94920.66370078117,0.0,94920.66370078117,1,0
2024-03-04,96435.09079201188,0.0,96435.09079201188,1,0
2024-03-05,95946.56448110133,0.0,95946.56448110133,1,0
2024-03-06,96913.85194381454,0.0,96913.85194381454,1,0
2024-03-07,98203.56110644557,0.0,98203.56110644557,1,0
2024-03-08,97451.22641322418,0.0,97451.22641322418,1,0
2024-03-11,97763.88295403412,0.0,97763.88295403412,1,0
2024-03-12,99561.66365443126,0.0,99561.66365443126,1,0
2024-03-13,101887.04621081024,0.0,101887.04621081024,1,0
2024-03-14,101037.01520059067,0.0,101037.01520059067,1,0
2024-03-15,101388.74728647192,0.0,101388.74728647192,1,0
2024-03-18,101984.74998212837,101984.74998212837,0.0,0,1
2024-03-19,101984.74998212837,101984.74998212837,0.0,0,1
2024-03-20,101984.74998212837,101984.74998212837,0.0,0,1
2024-03-21,101984.74998212837,101984.74998212837,0.0,0,0
2024-03-22,101984.74998212837,101984.74998212837,0.0,0,0
2024-03-25,101984.74998212837,101984.74998212837,0.0,0,1
2024-03-26,101984.74998212837,101984.74998212837,0.0,0,1
2024-03-27,101984.74998212837,101984.74998212837,0.0,0,1
2024-03-28,101984.74998212837,101984.74998212837,0.0,0,0
2024-04-01,101984.74998212837,101984.74998212837,0.0,0,1
2024-04-02,101984.74998212837,101984.74998212837,0.0,0,1
2024-04-03,101984.74998212837,101984.74998212837,0.0,0,1
2024-04-04,101984.74998212837,101984.74998212837,0.0,0,0
2024-04-05,101984.74998212837,101984.74998212837,0.0,0,0
2024-04-08,101984.74998212837,101984.74998212837,0.0,0,1
2024-04-09,101984.74998212837,101984.74998212837,0.0,0,1
2024-04-10,101984.74998212837,101984.74998212837,0.0,0,1
2024-04-11,101984.74998212837,101984.74998212837,0.0,0,0
2024-04-12,101984.74998212837,101984.74998212837,0.0,0,0
2024-04-15,101984.74998212837,101984.74998212837,0.0,0,1
2024-04-16,101984.74998212837,101984.74998212837,0.0,0,1
2024-04-17,101984.74998212837,101984.74998212837,0.0,0,1
2024-04-18,101984.74998212837,101984.74998212837,0.0,0,0
2024-04-19,101984.74998212837,101984.74998212837,0.0,0,0
2024-04-22,101984.74998212837,101984.74998212837,0.0,0,1
2024-04-23,101984.74998212837,101984.74998212837,0.0,0,1
2024-04-24,101984.74998212837,101984.74998212837,0.0,0,1
2024-04-25,101984.74998212837,101984.74998212837,0.0,0,0
2024-04-26,101984.74998212837,101984.74998212837,0.0,0,0
2024-04-29,101984.74998212837,101984.74998212837,0.0,0,1
2024-04-30,101984.74998212837,101984.74998212837,0.0,0,1
2024-05-01,101984.74998212837,101984.74998212837,0.0,0,1
2024-05-02,101984.74998212837,101984.74998212837,0.0,0,0
2024-05-03,101984.74998212837,101984.74998212837,0.0,0,0
2024-05-06,101984.74998212837,101984.74998212837,0.0,0,1
2024-05-07,101984.74998212837,101984.74998212837,0.0,0,1
2024-05-08,101984.74998212837,101984.74998212837,0.0,0,1
2024-05-09,101984.74998212837,101984.74998212837,0.0,0,0
2024-05-10,101984.74998212837,101984.74998212837,0.0,0,0
2024-05-13,101984.74998212837,101984.74998212837,0.0,0,1
2024-05-14,101984.74998212837,101984.74998212837,0.0,0,1
2024-05-15,101984.74998212837,101984.74998212837,0.0,0,1
2024-05-16,101984.74998212837,101984.74998212837,0.0,0,0
2024-05-17,101984.74998212837,101984.74998212837,0.0,0,0
2024-05-20,101984.74998212837,101984.74998212837,0.0,0,1
2024-05-21,101984.74998212837,101984.74998212837,0.0,0,1
2024-05-22,101984.74998212837,101984.74998212837,0.0,0,1
2024-05-23,101984.74998212837,101984.74998212837,0.0,0,0
2024-05-24,101984.74998212837,101984.74998212837,0.0,0,0
2024-05-28,101984.74998212837,101984.74998212837,0.0,0,1
2024-05-29,101984.74998212837,101984.74998212837,0.0,0,1
2024-05-30,102025.98832249896,0.0,102025.98832249896,1,0
2024-05-31,105500.17976342015,0.0,105500.17976342015,1,0
2024-06-03,104284.2085145737,0.0,104284.2085145737,1,0
2024-06-04,106252.92791225277,0.0,106252.92791225277,1,0
2024-06-05,105963.402863434,0.0,105963.402863434,1,0
2024-06-06,105847.60012023343,0.0,105847.60012023343,1,0
2024-06-07,104805.32692258204,0.0,104805.32692258204,1,0
2024-06-10,103415.6576225405,0.0,103415.6576225405,1,0
2024-06-11,103415.6576225405,0.0,103415.6576225405,1,0
2024-06-12,101968.06876008134,0.0,101968.06876008134,1,0
2024-06-13,102315.47698968305,0.0,102315.47698968305,1,0
2024-06-14,102141.76681127641,0.0,102141.76681127641,1,0
2024-06-17,102315.47698968305,0.0,102315.47698968305,1,0
2024-06-18,104515.81400097483,0.0,104515.81400097483,1,0
2024-06-20,104863.24648499968,0.0,104863.24648499968,1,0
2024-06-21,106542.45296107154,0.0,106542.45296107154,1,0
2024-06-24,107990.01756910759,0.0,107990.01756910759,1,0
2024-06-25,108221.64730993185,0.0,108221.64730993185,1,0
2024-06-26,108626.96297473964,0.0,108626.96297473964,1,0
2024-06-27,108569.06766674513,0.0,108569.06766674513,1,0
2024-06-28,110653.58980762478,0.0,110653.58980762478,1,0
2024-07-01,109900.8295315806,0.0,109900.8295315806,1,0
2024-07-02,108974.39545876447,0.0,108974.39545876447,1,0
2024-07-03,108163.72774751423,0.0,108163.72774751423,1,0
2024-07-05,108684.88253715726,0.0,108684.88253715726,1,0
2024-07-08,108916.4880235584,0.0,108916.4880235584,1,0
2024-07-09,108858.58058835234,0.0,108858.58058835234,1,0
2024-07-10,110139.82048982268,0.0,110139.82048982268,1,0
2024-07-11,110845.10273260367,0.0,110845.10273260367,1,0
2024-07-12,110551.23614204589,0.0,110551.23614204589,1,0
2024-07-15,109199.46437813397,0.0,109199.46437813397,1,0
2024-07-16,110786.32213816518,0.0,110786.32213816518,1,0
2024-07-17,112608.27802152724,0.0,112608.27802152724,1,0
2024-07-18,112549.5095543003,0.0,112549.5095543003,1,0
2024-07-19,112373.19202540795,0.0,112373.19202540795,1,0
2024-07-22,109023.14684924162,0.0,109023.14684924162,1,0
2024-07-23,107024.87343698721,0.0,107024.87343698721,1,0
2024-07-24,112608.27802152724,0.0,112608.27802152724,1,0
2024-07-25,112784.59555041959,0.0,112784.59555041959,1,0
2024-07-26,111726.69037706545,0.0,111726.69037706545,1,0
2024-07-29,111080.18872872296,0.0,111080.18872872296,1,0
2024-07-30,111550.36072096153,0.0,111550.36072096153,1,0
2024-07-31,113137.23060820429,0.0,113137.23060820429,1,0
2024-08-01,114430.22177767773,0.0,114430.22177767773,1,0
2024-08-02,113842.51285098528,0.0,113842.51285098528,1,0
2024-08-05,111138.96932316145,0.0,111138.96932316145,1,0
2024-08-06,112784.59555041959,0.0,112784.59555041959,1,0
2024-08-07,113137.23060820429,0.0,113137.23060820429,1,0
2024-08-08,114018.81825266608,0.0,114018.81825266608,1,0
2024-08-09,114547.77083934315,0.0,114547.77083934315,1,0
2024-08-12,114195.12365434687,0.0,114195.12365434687,1,0
2024-08-13,114724.10049544707,0.0,114724.10049544707,1,0
2024-08-14,115370.57788936644,0.0,115370.57788936644,1,0
2024-08-15,112196.8744965156,0.0,112196.8744965156,1,0
2024-08-16,113666.19532209293,0.0,113666.19532209293,1,0
2024-08-19,114547.77083934315,0.0,114547.77083934315,1,0
2024-08-20,114547.77083934315,0.0,114547.77083934315,1,0
2024-08-21,114841.62530268937,0.0,114841.62530268937,1,0
2024-08-22,114665.30777379702,0.0,114665.30777379702,1,0
2024-08-23,115958.29894327043,115958.29894327043,0.0,0,0
2024-08-26,115958.29894327043,115958.29894327043,0.0,0,1
2024-08-27,115958.29894327043,115958.29894327043,0.0,0,1
2024-08-28,115958.29894327043,115958.29894327043,0.0,0,1
2024-08-29,115958.29894327043,115958.29894327043,0.0,0,0
2024-08-30,115958.29894327043,115958.29894327043,0.0,0,0
2024-09-03,115958.29894327043,115958.29894327043,0.0,0,1
2024-09-04,115958.29894327043,115958.29894327043,0.0,0,1
2024-09-05,114828.80679585406,0.0,114828.80679585406,1,0
2024-09-06,113731.99812390169,0.0,113731.99812390169,1,0
2024-09-09,114845.69033132121,0.0,114845.69033132121,1,0
2024-09-10,114744.44558519217,0.0,114744.44558519217,1,0
2024-09-11,114390.08191540628,0.0,114390.08191540628,1,0
2024-09-12,113900.73466189396,0.0,113900.73466189396,1,0
2024-09-13,114693.8161537934,0.0,114693.8161537934,1,0
2024-09-16,115419.4199704981,0.0,115419.4199704981,1,0
2024-09-17,115132.54809257542,0.0,115132.54809257542,1,0
2024-09-18,113883.85818476103,0.0,113883.85818476103,1,0
2024-09-19,113394.5038729145,0.0,113394.5038729145,1,0
2024-09-20,113293.2732434539,0.0,113293.2732434539,1,0
2024-09-23,113472.35024108636,0.0,113472.35024108636,1,0
2024-09-24,113455.29730559781,0.0,113455.29730559781,1,0
2024-09-25,112790.1128298625,0.0,112790.1128298625,1,0
2024-09-26,112551.32232468319,0.0,112551.32232468319,1,0
2024-09-27,115160.86612948771,0.0,115160.86612948771,1,0
2024-09-30,116064.82699373388,0.0,116064.82699373388,1,0
2024-10-01,115519.04835808954,0.0,115519.04835808954,1,0
2024-10-02,113728.18662341998,0.0,113728.18662341998,1,0
2024-10-03,112380.78591146346,0.0,112380.78591146346,1,0
2024-10-04,111510.91680152595,0.0,111510.91680152595,1,0
2024-10-07,109293.67521296881,0.0,109293.67521296881,1,0
2024-10-08,108679.67071870182,0.0,108679.67071870182,1,0
2024-10-09,108116.82503090048,0.0,108116.82503090048,1,0
2024-10-10,108918.44710721266,0.0,108918.44710721266,1,0
2024-10-11,108850.22830692424,0.0,108850.22830692424,1,0
2024-10-14,109191.33642503484,0.0,109191.33642503484,1,0
2024-10-15,111545.04384750573,0.0,111545.04384750573,1,0
2024-10-16,112142.00246461839,0.0,112142.00246461839,1,0
2024-10-17,110862.8205529503,0.0,110862.8205529503,1,0
2024-10-18,112790.1128298625,0.0,112790.1128298625,1,0
2024-10-21,112790.1128298625,0.0,112790.1128298625,1,0
2024-10-22,112960.69159308758,0.0,112960.69159308758,1,0
2024-10-23,114427.46991179818,0.0,114427.46991179818,1,0
2024-10-24,113966.97007026504,0.0,113966.97007026504,1,0
2024-10-25,112295.50005901803,0.0,112295.50005901803,1,0
2024-10-28,113404.11732412949,0.0,113404.11732412949,1,0
2024-10-29,110095.30434761522,0.0,110095.30434761522,1,0
2024-10-30,111698.53438357114,0.0,111698.53438357114,1,0
2024-10-31,112312.55299450658,0.0,112312.55299450658,1,0
2024-11-01,108594.3848662564,0.0,108594.3848662564,1,0
2024-11-04,107613.44609128144,107613.44609128144,0.0,0,1
2024-11-05,107613.44609128144,107613.44609128144,0.0,0,1
2024-11-06,107613.44609128144,107613.44609128144,0.0,0,1
2024-11-07,107613.44609128144,107613.44609128144,0.0,0,0
2024-11-08,107613.44609128144,107613.44609128144,0.0,0,0
2024-11-11,107683.75581085582,0.0,107683.75581085582,1,0
2024-11-12,107449.40358787702,0.0,107449.40358787702,1,0
2024-11-13,105090.2785372824,0.0,105090.2785372824,1,0
2024-11-14,102004.67470706762,0.0,102004.67470706762,1,0
2024-11-15,101598.46498188098,0.0,101598.46498188098,1,0
2024-11-18,101817.19054475475,0.0,101817.19054475475,1,0
2024-11-19,102328.85340643971,0.0,102328.85340643971,1,0
2024-11-20,104121.62824480633,0.0,104121.62824480633,1,0
2024-11-21,102332.76305137826,0.0,102332.76305137826,1,0
2024-11-22,102696.00244118834,0.0,102696.00244118834,1,0
2024-11-25,104121.62824480633,0.0,104121.62824480633,1,0
2024-11-26,104059.14544368457,0.0,104059.14544368457,1,0
2024-11-27,104254.43697622536,0.0,104254.43697622536,1,0
2024-11-29,104199.74962568232,0.0,104199.74962568232,1,0
2024-12-02,104086.47719930689,0.0,104086.47719930689,1,0
2024-12-03,105324.63076026119,0.0,105324.63076026119,1,0
2024-12-04,105148.8636131148,0.0,105148.8636131148,1,0
2024-12-05,104512.21130988792,0.0,104512.21130988792,1,0
2024-12-06,103684.17711905882,0.0,103684.17711905882,1,0
2024-12-09,103551.38030728897,0.0,103551.38030728897,1,0
2024-12-10,107328.32379127367,0.0,107328.32379127367,1,0
2024-12-11,106812.75128465015,0.0,106812.75128465015,1,0
2024-12-12,106133.14056569591,0.0,106133.14056569591,1,0
2024-12-13,105199.64131871928,0.0,105199.64131871928,1,0
2024-12-16,103699.80377916385,0.0,103699.80377916385,1,0
2024-12-17,102860.05257316826,0.0,102860.05257316826,1,0
2024-12-18,100161.12216309653,0.0,100161.12216309653,1,0
2024-12-19,100207.99022376245,0.0,100207.99022376245,1,0
2024-12-20,104117.73051951698,0.0,104117.73051951698,1,0
2024-12-23,102852.23328329113,0.0,102852.23328329113,1,0
2024-12-24,102813.18451250234,0.0,102813.18451250234,1,0
2024-12-26,103770.10587016273,0.0,103770.10587016273,1,0
2024-12-27,103551.38030728897,0.0,103551.38030728897,1,0
2024-12-30,102863.95029845762,0.0,102863.95029845762,1,0
2024-12-31,101969.5236615682,0.0,101969.5236615682,1,0
2025-01-02,100321.26265013788,0.0,100321.26265013788,1,0
2025-01-03,104012.26546336945,0.0,104012.26546336945,1,0
2025-01-06,104836.4019289092,0.0,104836.4019289092,1,0
2025-01-07,103758.38885499626,0.0,103758.38885499626,1,0
2025-01-08,105598.0317540288,0.0,105598.0317540288,1,0
2025-01-10,106172.1893364847,0.0,106172.1893364847,1,0
2025-01-13,104672.35179692929,0.0,104672.35179692929,1,0
2025-01-14,104301.30503689128,0.0,104301.30503689128,1,0
2025-01-15,103262.35265341634,0.0,103262.35265341634,1,0
2025-01-16,106574.48941673279,0.0,106574.48941673279,1,0
2025-01-17,107726.71422658318,0.0,107726.71422658318,1,0
2025-01-21,107832.16736308149,0.0,107832.16736308149,1,0
2025-01-22,108929.71674203804,0.0,108929.71674203804,1,0
2025-01-23,108269.63040847822,0.0,108269.63040847822,1,0
2025-01-24,109499.9646795554,0.0,109499.9646795554,1,0
2025-01-27,107761.86527208262,0.0,107761.86527208262,1,0
2025-01-28,107789.20894735414,0.0,107789.20894735414,1,0
2025-01-29,108234.46744332957,0.0,108234.46744332957,1,0
2025-01-30,109374.97523801347,0.0,109374.97523801347,1,0
2025-01-31,108730.5155645587,0.0,108730.5155645587,1,0
2025-02-03,108933.61446732741,0.0,108933.61446732741,1,0
2025-02-04,108769.57625499669,0.0,108769.57625499669,1,0
2025-02-05,111199.00339659018,0.0,111199.00339659018,1,0
2025-02-06,112359.0355766685,0.0,112359.0355766685,1,0
2025-02-07,110566.24881865268,110566.24881865268,0.0,0,0
2025-02-10,110566.24881865268,110566.24881865268,0.0,0,1
2025-02-11,110566.24881865268,110566.24881865268,0.0,0,1
2025-02-12,110566.24881865268,110566.24881865268,0.0,0,1
2025-02-13,110566.24881865268,110566.24881865268,0.0,0,0
2025-02-14,110566.24881865268,110566.24881865268,0.0,0,0
2025-02-18,110566.24881865268,110566.24881865268,0.0,0,1
2025-02-19,110566.24881865268,110566.24881865268,0.0,0,1
2025-02-20,110566.24881865268,110566.24881865268,0.0,0,1
2025-02-21,110566.24881865268,110566.24881865268,0.0,0,0
2025-02-24,111208.05351112582,0.0,111208.05351112582,1,0
2025-02-25,111147.18594942898,0.0,111147.18594942898,1,0
2025-02-26,111487.10823273829,0.0,111487.10823273829,1,0
2025-02-27,109767.16843037515,0.0,109767.16843037515,1,0
2025-02-28,111350.10918061923,0.0,111350.10918061923,1,0
2025-03-03,111725.57674016933,0.0,111725.57674016933,1,0
2025-03-04,110203.48787218839,0.0,110203.48787218839,1,0
2025-03-05,110294.81273388423,0.0,110294.81273388423,1,0
2025-03-06,103308.47257372737,0.0,103308.47257372737,1,0
2025-03-07,108077.65456914359,0.0,108077.65456914359,1,0
2025-03-10,110301.26482085956,0.0,110301.26482085956,1,0
2025-03-11,105035.75035107095,0.0,105035.75035107095,1,0
2025-03-12,104984.93330638793,0.0,104984.93330638793,1,0
2025-03-13,103084.07635805906,0.0,103084.07635805906,1,0
2025-03-14,105711.7377769947,0.0,105711.7377769947,1,0
2025-03-17,109787.92800061901,0.0,109787.92800061901,1,0
2025-03-18,110306.3449573845,0.0,110306.3449573845,1,0
2025-03-19,110514.74031094265,0.0,110514.74031094265,1,0
2025-03-20,109493.13896726961,0.0,109493.13896726961,1,0
2025-03-21,110951.82804500811,0.0,110951.82804500811,1,0
2025-03-24,113681.15491217724,0.0,113681.15491217724,1,0
2025-03-25,113564.25689408583,0.0,113564.25689408583,1,0
2025-03-26,113198.30675080312,0.0,113198.30675080312,1,0
2025-03-27,114773.90952606674,0.0,114773.90952606674,1,0
2025-03-28,111180.54394466597,0.0,111180.54394466597,1,0
2025-03-31,111043.30970104114,0.0,111043.30970104114,1,0
2025-04-01,112273.29071883862,0.0,112273.29071883862,1,0
2025-04-02,111043.30970104114,0.0,111043.30970104114,1,0
2025-04-03,108476.64127927207,0.0,108476.64127927207,1,0
2025-04-04,100690.18745615562,0.0,100690.18745615562,1,0
2025-04-07,98054.39152467168,98054.39152467168,0.0,0,1
2025-04-08,98054.39152467168,98054.39152467168,0.0,0,1
2025-04-09,98054.39152467168,98054.39152467168,0.0,0,1
2025-04-10,98054.39152467168,98054.39152467168,0.0,0,0
2025-04-11,98054.39152467168,98054.39152467168,0.0,0,0
2025-04-14,98054.39152467168,98054.39152467168,0.0,0,1
2025-04-15,98054.39152467168,98054.39152467168,0.0,0,1
2025-04-16,98054.39152467168,98054.39152467168,0.0,0,1
2025-04-17,98054.39152467168,98054.39152467168,0.0,0,0
2025-04-21,98054.39152467168,98054.39152467168,0.0,0,0
2025-04-22,98054.39152467168,98054.39152467168,0.0,0,0
2025-04-23,98054.39152467168,98054.39152467168,0.0,0,0
2025-04-24,98054.39152467168,98054.39152467168,0.0,0,0
2025-04-25,98054.39152467168,98054.39152467168,0.0,0,0
2025-04-28,98054.39152467168,98054.39152467168,0.0,0,1
2025-04-29,98054.39152467168,98054.39152467168,0.0,0,1
2025-04-30,98054.39152467168,98054.39152467168,0.0,0,1
2025-05-01,98054.39152467168,98054.39152467168,0.0,0,0
2025-05-02,98054.39152467168,98054.39152467168,0.0,0,0
2025-05-05,98054.39152467168,98054.39152467168,0.0,0,1
2025-05-06,98054.39152467168,98054.39152467168,0.0,0,1
2025-05-07,98054.39152467168,98054.39152467168,0.0,0,1
2025-05-08,98054.39152467168,98054.39152467168,0.0,0,0
2025-05-09,98054.39152467168,98054.39152467168,0.0,0,0
2025-05-12,98054.39152467168,98054.39152467168,0.0,0,1
2025-05-13,98054.39152467168,98054.39152467168,0.0,0,1
2025-05-14,98054.39152467168,98054.39152467168,0.0,0,1
2025-05-15,98054.39152467168,98054.39152467168,0.0,0,0
2025-05-16,98054.39152467168,98054.39152467168,0.0,0,0
2025-05-19,98054.39152467168,98054.39152467168,0.0,0,1
2025-05-20,98054.39152467168,98054.39152467168,0.0,0,1
2025-05-21,98054.39152467168,98054.39152467168,0.0,0,1
2025-05-22,98054.39152467168,98054.39152467168,0.0,0,0
2025-05-23,98054.39152467168,98054.39152467168,0.0,0,0
2025-05-27,98054.39152467168,98054.39152467168,0.0,0,1
2025-05-28,98054.39152467168,98054.39152467168,0.0,0,1
2025-05-29,98054.39152467168,98054.39152467168,0.0,0,1
2025-05-30,98054.39152467168,98054.39152467168,0.0,0,0
2025-06-02,98054.39152467168,98054.39152467168,0.0,0,1
2025-06-03,98054.39152467168,98054.39152467168,0.0,0,1
2025-06-04,98054.39152467168,98054.39152467168,0.0,0,1
2025-06-05,98054.39152467168,98054.39152467168,0.0,0,0
2025-06-06,98054.39152467168,98054.39152467168,0.0,0,0
2025-06-09,98054.39152467168,98054.39152467168,0.0,0,1
2025-06-10,98054.39152467168,98054.39152467168,0.0,0,1
2025-06-11,98054.39152467168,98054.39152467168,0.0,0,1
2025-06-12,98054.39152467168,98054.39152467168,0.0,0,0
2025-06-13,98054.39152467168,98054.39152467168,0.0,0,0
2025-06-16,98054.39152467168,98054.39152467168,0.0,0,1
2025-06-17,98054.39152467168,98054.39152467168,0.0,0,1
2025-06-18,98054.39152467168,98054.39152467168,0.0,0,1
2025-06-20,98054.39152467168,98054.39152467168,0.0,0,0
2025-06-23,98054.39152467168,98054.39152467168,0.0,0,1
2025-06-24,98054.39152467168,98054.39152467168,0.0,0,1
2025-06-25,98054.39152467168,98054.39152467168,0.0,0,1
2025-06-26,98054.39152467168,98054.39152467168,0.0,0,0
2025-06-27,98054.39152467168,98054.39152467168,0.0,0,0
2025-06-30,98054.39152467168,98054.39152467168,0.0,0,1
2025-07-01,98054.39152467168,98054.39152467168,0.0,0,1
2025-07-02,98054.39152467168,98054.39152467168,0.0,0,1
2025-07-03,98054.39152467168,98054.39152467168,0.0,0,0
2025-07-07,98054.39152467168,98054.39152467168,0.0,0,1
2025-07-08,98054.39152467168,98054.39152467168,0.0,0,1
2025-07-09,98054.39152467168,98054.39152467168,0.0,0,1
2025-07-10,98054.39152467168,98054.39152467168,0.0,0,0
2025-07-11,98054.39152467168,98054.39152467168,0.0,0,0
2025-07-14,98054.39152467168,98054.39152467168,0.0,0,1
2025-07-15,98054.39152467168,98054.39152467168,0.0,0,1
2025-07-16,98054.39152467168,98054.39152467168,0.0,0,1
2025-07-17,98054.39152467168,98054.39152467168,0.0,0,0
2025-07-18,98054.39152467168,98054.39152467168,0.0,0,0
2025-07-21,97100.77038597454,0.0,97100.77038597454,1,0
2025-07-22,98323.38241672821,0.0,98323.38241672821,1,0
2025-07-23,98268.55028541254,0.0,98268.55028541254,1,0
2025-07-24,98696.19473884856,0.0,98696.19473884856,1,0
2025-07-25,97539.3846857349,0.0,97539.3846857349,1,0
2025-07-28,96338.7123476299,0.0,96338.7123476299,1,0
2025-07-29,97753.19836229988,0.0,97753.19836229988,1,0
2025-07-30,97204.94545036722,0.0,97204.94545036722,1,0
2025-07-31,96733.4558122459,0.0,96733.4558122459,1,0
2025-08-01,94414.3465077799,0.0,94414.3465077799,1,0
2025-08-04,94798.12867622459,0.0,94798.12867622459,1,0
2025-08-05,94392.42391543726,0.0,94392.42391543726,1,0
2025-08-06,92923.10576945159,0.0,92923.10576945159,1,0
2025-08-07,93877.05489201857,0.0,93877.05489201857,1,0
2025-08-08,93153.36994042658,0.0,93153.36994042658,1,0
2025-08-11,92506.43116233991,0.0,92506.43116233991,1,0
2025-08-12,92802.48876080192,0.0,92802.48876080192,1,0
2025-08-13,92424.20434074894,0.0,92424.20434074894,1,0
2025-08-14,91130.3267845756,0.0,91130.3267845756,1,0
2025-08-15,91503.13055654292,0.0,91503.13055654292,1,0
2025-08-18,90472.42671031762,0.0,90472.42671031762,1,0
2025-08-19,91322.21786879795,0.0,91322.21786879795,1,0
2025-08-20,90642.37810189127,0.0,90642.37810189127,1,0
2025-08-21,89716.49023952901,89716.49023952901,0.0,0,0
2025-08-22,89716.49023952901,89716.49023952901,0.0,0,0
2025-08-25,89716.49023952901,89716.49023952901,0.0,0,1
2025-08-26,89716.49023952901,89716.49023952901,0.0,0,1
2025-08-27,89716.49023952901,89716.49023952901,0.0,0,1
2025-08-28,89716.49023952901,89716.49023952901,0.0,0,0
2025-08-29,89716.49023952901,89716.49023952901,0.0,0,0
2025-09-02,89716.49023952901,89716.49023952901,0.0,0,1
2025-09-03,89716.49023952901,89716.49023952901,0.0,0,1
2025-09-04,89716.49023952901,89716.49023952901,0.0,0,1
2025-09-05,89716.49023952901,89716.49023952901,0.0,0,0
2025-09-08,89454.7699215276,0.0,89454.7699215276,1,0
2025-09-09,90365.10010355046,0.0,90365.10010355046,1,0
2025-09-10,87364.81360143117,0.0,87364.81360143117,1,0
2025-09-11,87220.67668704476,0.0,87220.67668704476,1,0
2025-09-12,86537.93049745294,0.0,86537.93049745294,1,0
2025-09-15,87782.04320395298,0.0,87782.04320395298,1,0
2025-09-16,88775.82046402048,0.0,88775.82046402048,1,0
2025-09-17,87854.11166114619,0.0,87854.11166114619,1,0
2025-09-18,87706.18380237641,0.0,87706.18380237641,1,0
2025-09-19,87801.00950127246,0.0,87801.00950127246,1,0
2025-09-22,86340.69721089413,0.0,86340.69721089413,1,0
2025-09-23,83715.92255997568,0.0,83715.92255997568,1,0
2025-09-24,83526.27116218359,0.0,83526.27116218359,1,0
2025-09-25,82744.90254161101,0.0,82744.90254161101,1,0
2025-09-26,83363.16795047768,0.0,83363.16795047768,1,0
2025-09-29,84269.70140041584,0.0,84269.70140041584,1,0
2025-09-30,83283.51760451775,0.0,83283.51760451775,1,0
2025-10-01,83685.57764180479,0.0,83685.57764180479,1,0
2025-10-02,84360.73615492854,0.0,84360.73615492854,1,0
2025-10-03,83260.75457511358,0.0,83260.75457511358,1,0
2025-10-06,83787.98522946755,0.0,83787.98522946755,1,0
2025-10-07,84121.77354164606,0.0,84121.77354164606,1,0
2025-10-08,85426.5760844879,0.0,85426.5760844879,1,0
2025-10-09,86382.42074991645,0.0,86382.42074991645,1,0
2025-10-10,82069.74402848726,0.0,82069.74402848726,1,0
2025-10-13,83473.16900230985,0.0,83473.16900230985,1,0
2025-10-14,82077.33170495533,0.0,82077.33170495533,1,0
2025-10-15,81766.30642218099,0.0,81766.30642218099,1,0
2025-10-16,81349.07103195784,0.0,81349.07103195784,1,0
2025-10-17,80192.19704240994,80192.19704240994,0.0,0,0
2025-10-20,80192.19704240994,80192.19704240994,0.0,0,1
2025-10-21,80192.19704240994,80192.19704240994,0.0,0,1
2025-10-22,80192.19704240994,80192.19704240994,0.0,0,1
2025-10-23,80192.19704240994,80192.19704240994,0.0,0,0
2025-10-24,80192.19704240994,80192.19704240994,0.0,0,0
2025-10-27,80192.19704240994,80192.19704240994,0.0,0,1
2025-10-28,80192.19704240994,80192.19704240994,0.0,0,1
2025-10-29,83620.52883386282,0.0,83620.52883386282,1,0
2025-10-30,83158.6902273164,0.0,83158.6902273164,1,0
2025-10-31,83165.773975824,0.0,83165.773975824,1,0
2025-11-03,82742.86329184553,0.0,82742.86329184553,1,0
2025-11-04,81297.20099833945,0.0,81297.20099833945,1,0
2025-11-05,82822.4900741083,0.0,82822.4900741083,1,0
2025-11-06,81656.40153804803,0.0,81656.40153804803,1,0
2025-11-07,81826.26982726032,0.0,81826.26982726032,1,0
2025-11-10,81799.72211746876,0.0,81799.72211746876,1,0
2025-11-11,79648.03895732191,0.0,79648.03895732191,1,0
2025-11-12,80157.64927399612,0.0,80157.64927399612,1,0
2025-11-13,77441.48944046504,0.0,77441.48944046504,1,0
2025-11-14,76586.82973398552,0.0,76586.82973398552,1,0
2025-11-17,74419.20813969658,0.0,74419.20813969658,1,0
2025-11-18,73837.0547892672,0.0,73837.0547892672,1,0
2025-11-19,74157.32195737053,0.0,74157.32195737053,1,0
2025-11-20,72081.71825619532,0.0,72081.71825619532,1,0
2025-11-21,74643.93188754428,0.0,74643.93188754428,1,0
2025-11-24,75040.29486173119,0.0,75040.29486173119,1,0
2025-11-25,76055.98451890044,0.0,76055.98451890044,1,0
2025-11-26,75817.10417211216,0.0,75817.10417211216,1,0
2025-11-28,76594.71449097821,0.0,76594.71449097821,1,0
2025-12-01,75959.13877872689,0.0,75959.13877872689,1,0
2025-12-02,75893.44518487486,0.0,75893.44518487486,1,0
2025-12-03,76223.66229511269,0.0,76223.66229511269,1,0
2025-12-04,77709.64201570165,0.0,77709.64201570165,1,0
2025-12-05,78210.29956406972,0.0,78210.29956406972,1,0
2025-12-08,78384.28732549107,0.0,78384.28732549107,1,0
2025-12-09,77885.41161232452,0.0,77885.41161232452,1,0
2025-12-10,79568.45576735766,0.0,79568.45576735766,1,0
2025-12-11,82167.59752458047,0.0,82167.59752458047,1,0
2025-12-12,79536.50261255106,0.0,79536.50261255106,1,0
2025-12-15,78975.4806288236,0.0,78975.4806288236,1,0
2025-12-16,77835.7000449131,0.0,77835.7000449131,1,0
2025-12-17,76284.02128143478,0.0,76284.02128143478,1,0
2025-12-18,77201.88982075136,0.0,77201.88982075136,1,0
2025-12-19,78561.82241020352,0.0,78561.82241020352,1,0
2025-12-22,80074.43702518105,0.0,80074.43702518105,1,0
2025-12-23,80942.59399708621,0.0,80942.59399708621,1,0
2025-12-24,81006.50575573673,0.0,81006.50575573673,1,0
2025-12-26,80768.60623566488,0.0,80768.60623566488,1,0
2025-12-29,80138.35423286888,0.0,80138.35423286888,1,0
2025-12-30,79289.72116165815,0.0,79289.72116165815,1,0
2025-12-31,78845.88072535835,0.0,78845.88072535835,1,0
2026-01-02,82204.87983787972,0.0,82204.87983787972,1,0
2026-01-05,82639.84379239574,0.0,82639.84379239574,1,0
2026-01-06,84766.73383276598,0.0,84766.73383276598,1,0
2026-01-07,83122.7483771963,0.0,83122.7483771963,1,0
2026-01-08,81821.39838790202,0.0,81821.39838790202,1,0
2026-01-09,83536.40659581638,0.0,83536.40659581638,1,0
2026-01-12,83953.6230358022,0.0,83953.6230358022,1,0
2026-01-13,85515.93832011655,0.0,85515.93832011655,1,0
2026-01-14,84518.18144474615,0.0,84518.18144474615,1,0
2026-01-15,85947.35495134146,0.0,85947.35495134146,1,0
2026-01-16,86870.54720011337,0.0,86870.54720011337,1,0
2026-01-20,83893.25860044282,0.0,83893.25860044282,1,0
2026-01-21,85661.52569905971,0.0,85661.52569905971,1,0
2026-01-22,85938.47846955771,0.0,85938.47846955771,1,0
2026-01-23,86199.46011168971,0.0,86199.46011168971,1,0
2026-01-26,86428.4831499778,86428.4831499778,0.0,0,1
2026-01-27,86428.4831499778,86428.4831499778,0.0,0,1
2026-01-28,86428.4831499778,86428.4831499778,0.0,0,1
2026-01-29,86428.4831499778,86428.4831499778,0.0,0,0
2026-01-30,86428.4831499778,86428.4831499778,0.0,0,0
2026-02-02,86428.4831499778,86428.4831499778,0.0,0,1
2026-02-03,86428.4831499778,86428.4831499778,0.0,0,1
2026-02-04,86428.4831499778,86428.4831499778,0.0,0,1
2026-02-05,86428.4831499778,86428.4831499778,0.0,0,0
2026-02-06,86428.4831499778,86428.4831499778,0.0,0,0
2026-02-09,86428.4831499778,86428.4831499778,0.0,0,1
2026-02-10,86428.4831499778,86428.4831499778,0.0,0,1
2026-02-11,86428.4831499778,86428.4831499778,0.0,0,1
2026-02-12,86428.4831499778,86428.4831499778,0.0,0,0
2026-02-13,86428.4831499778,86428.4831499778,0.0,0,0
2026-02-17,85179.64825700672,0.0,85179.64825700672,1,0
2026-02-18,85492.50648744119,0.0,85492.50648744119,1,0
2026-02-19,83994.42642958574,0.0,83994.42642958574,1,0
2026-02-20,84241.101165159,0.0,84241.101165159,1,0
2026-02-23,84355.41811082838,0.0,84355.41811082838,1,0
2026-02-24,84770.53232477448,0.0,84770.53232477448,1,0
2026-02-25,80986.25135080994,0.0,80986.25135080994,1,0
2026-02-26,81617.96609339277,0.0,81617.96609339277,1,0
2026-02-27,82544.47982253844,0.0,82544.47982253844,1,0
2026-03-02,80450.79431002485,0.0,80450.79431002485,1,0
2026-03-03,79434.02116079528,0.0,79434.02116079528,1,0
2026-03-04,79524.2713810606,0.0,79524.2713810606,1,0
2026-03-05,78002.12459780106,0.0,78002.12459780106,1,0
2026-03-06,76913.1696719964,0.0,76913.1696719964,1,0
2026-03-09,76203.2426717596,0.0,76203.2426717596,1,0
2026-03-10,74837.5250037173,0.0,74837.5250037173,1,0
2026-03-11,74229.87238662926,0.0,74229.87238662926,1,0
2026-03-12,72473.09343031707,0.0,72473.09343031707,1,0
2026-03-13,71709.02089783037,0.0,71709.02089783037,1,0
2026-03-16,73501.8907424301,0.0,73501.8907424301,1,0
2026-03-17,73532.03854791526,0.0,73532.03854791526,1,0
2026-03-18,70589.79396898973,0.0,70589.79396898973,1,0
2026-03-19,69818.05614766256,69818.05614766256,0.0,0,0
2026-03-20,69818.05614766256,69818.05614766256,0.0,0,0
2026-03-23,69818.05614766256,69818.05614766256,0.0,0,1
2026-03-24,69818.05614766256,69818.05614766256,0.0,0,1
2026-03-25,69818.05614766256,69818.05614766256,0.0,0,1
2026-03-26,69818.05614766256,69818.05614766256,0.0,0,0
2026-03-27,69818.05614766256,69818.05614766256,0.0,0,0
2026-03-30,69818.05614766256,69818.05614766256,0.0,0,1
2026-03-31,69818.05614766256,69818.05614766256,0.0,0,1
2026-04-01,69818.05614766256,69818.05614766256,0.0,0,1
2026-04-02,69818.05614766256,69818.05614766256,0.0,0,0
2026-04-06,69818.05614766256,69818.05614766256,0.0,0,1
2026-04-07,69818.05614766256,69818.05614766256,0.0,0,1
2026-04-08,69818.05614766256,69818.05614766256,0.0,0,1
2026-04-09,69818.05614766256,69818.05614766256,0.0,0,0
2026-04-10,69818.05614766256,69818.05614766256,0.0,0,0
2026-04-13,69818.05614766256,69818.05614766256,0.0,0,1
2026-04-14,69818.05614766256,69818.05614766256,0.0,0,1
2026-04-15,69818.05614766256,69818.05614766256,0.0,0,1
2026-04-16,69818.05614766256,69818.05614766256,0.0,0,0
2026-04-17,69818.05614766256,69818.05614766256,0.0,0,0
2026-04-20,69818.05614766256,69818.05614766256,0.0,0,1
2026-04-21,69818.05614766256,69818.05614766256,0.0,0,1
2026-04-22,69818.05614766256,69818.05614766256,0.0,0,1
2026-04-23,69818.05614766256,69818.05614766256,0.0,0,0
2026-04-24,69818.05614766256,69818.05614766256,0.0,0,0
2026-04-27,69818.05614766256,69818.05614766256,0.0,0,1
2026-04-28,69818.05614766256,69818.05614766256,0.0,0,1
2026-04-29,69818.05614766256,69818.05614766256,0.0,0,1
2026-04-30,69818.05614766256,69818.05614766256,0.0,0,0
2026-05-01,69818.05614766256,69818.05614766256,0.0,0,0
2026-05-04,69818.05614766256,69818.05614766256,0.0,0,1
2026-05-05,69818.05614766256,69818.05614766256,0.0,0,1
2026-05-06,69818.05614766256,69818.05614766256,0.0,0,1
2026-05-07,69818.05614766256,69818.05614766256,0.0,0,0
2026-05-08,69818.05614766256,69818.05614766256,0.0,0,0
2026-05-11,69818.05614766256,69818.05614766256,0.0,0,1
2026-05-12,69818.05614766256,69818.05614766256,0.0,0,1
2026-05-13,69818.05614766256,69818.05614766256,0.0,0,1
2026-05-14,69818.05614766256,69818.05614766256,0.0,0,0
2026-05-15,69818.05614766256,69818.05614766256,0.0,0,0
2026-05-18,69818.05614766256,69818.05614766256,0.0,0,1
2026-05-19,69818.05614766256,69818.05614766256,0.0,0,1
2026-05-20,69818.05614766256,69818.05614766256,0.0,0,1
2026-05-21,69818.05614766256,69818.05614766256,0.0,0,0
2026-05-22,69818.05614766256,69818.05614766256,0.0,0,0
2026-05-26,69818.05614766256,69818.05614766256,0.0,0,1
2026-05-27,69818.05614766256,69818.05614766256,0.0,0,1
2026-05-28,69818.05614766256,69818.05614766256,0.0,0,1
2026-05-29,69818.05614766256,69818.05614766256,0.0,0,0
